BASECALLER_SEQUENCES
>Forward
ATNNNTCCGGTGATTGGCCGATGGAATNCCAACCTATTGGGTTCTGAGAAACGCAAACGTANCAATAAATCCAGGACCATTTGCTCAAACTGGATACGCGCCAGTGAATTGGGGACCTGGAGAAACAAATGATTCAACAACAGTTGAACCAGTACTTGACGGTCCATATCAACCTACTACATTTNATCCACCAGTAAGTTATTGGATACTATTATCCCCATCTAATGCAGGAGTGATAGTGGAGGGAACAAATAATTCAGATAGGTGGCTGGCCACGATACTAATTGAGCCAAATGTAACGTCACAAAGCAGGACATATACTCTATTTGGACGGCAAGAACAAATAACAATTGAAAATGTTTCAACGACGAAATGGAAATTTGTAGATTTGGCTAAAACTGATGTTAATGGAACATTTACNCAGCATGGACCACTATTGTCAGATACAAAGCTATATGGAGTGATGAAATTTAGTGGTAGACTATATACATATAATGGTGAGACACCGAATGCAACTACTGGTTATTACACAACAACTAATTATGACACAGTAAATATGACATCACATTGCGACTTTTATATTATACCACGATCTGAAGAAAACGCATGTACAAATTATATTAATAATGGGTTACCACCAATACAGAATACCAGAAACGTGGTTCCAGTGTCTCTAACTTCTAGATCAATTGTGCACACTAGAGCTCAGGCAAATGAAGATATTNTTGTATCAAAAACTTCATTATGGAAAGAAATGCAGTATAATAGAGATATAACTATNCGTTTTAAGTTCGCAAATGCTATAATTAAATCTGGTGGTCTAGGATACAAGTGGTCTGAAATTTCATTTAAACCAGCNAAACTATCAATATACCTATNCNCGGGGATGGGGAAAATAATAACGCTCACACNAACATGCTCAGTTTNATGGGAATAANNNNANNNNANNNNNNNNNNNNNNNNNNNNNNNNNNNNNNNNNNNNNNNNNNNNNNNNNNNNNNNNNNNNNNNNNNNNNNNNNNNNNNNNNNNNNNNNNNNNNNNNNNNNNNNNNNNNNNNNNNNNNNNNNNNNNNNNNNNNNNNNNNNNNNNNNNNNNNNNNNNNNNNNNNNNNNNNNNNNNNNNNNNNNNNNNNNNNNNNNNNNNNNNNNNNNNNNNNNNNNNNNNNNNNNNNNNNNNNNNNNNNNNNNNNNNNNNNNNNNNNNNNNNNNNNNNNNNNNNNNNNNNNNNNNNNNNNNNNNNNNNNNNNNNNNNNNNNNNNNNNNNNNNNNNNNNNNNNNNNNNNNNNNNNNNNNNNNNNNNNNNNNNNNNNNNNNNNNNNNNNNNNNNNNNNNNNNNN
>Reverse
NNNNNNNNNNNNNNNNNNNNNNNNNNNNNNNNNNNNNNNNNNNNNNNNNNNNNNNNNNNNNNNNNNNNNNNNNNNNNNNNNNNNNNNNNNNNNNNNNNNNNNNNNNNNNNNNNNNNNNNNNNNNNNNNNNNNNNNNNNNNNNNNNNNNNNNNNNNNNNNNNNNNNNNNNNNNNNNNNNNNNNNNNNNNNNNNNNNNNNNNNNNNNNNNNNNNNNNNNNNNNNNNNNNNNNNNNNNNNNNNNNNNNNNNNNNNNNNNNNNNNNNNNNNNNNNNNNNNNNNNNNNNNNNNNNNNNNNNNNNNNNNNNNNNNNNNNNNNNNNNNNNNNNNNNNNNNNNNNNNNNNNNNNNNNNNNNNNNNNNNNNNNNNNNNNNNNNNNNNNTNNNNNNNTNGNNNTTGGCTTCTNNNCATTANAGACAGCTACTGTCAAATTCGTATACCGGTAGATTTGTCAGATGAAATACAAACTATTGGNTTCTGAGAAANCGCAAAACGTAACAATAAATCCAGGACCATTTGCTCAAACTGGATACGCGCCAGTGAATNGGGGACCTGGAGAAACAAATGATTCAACAACAGTTGAACCAGTACTTGACGGTCCATATCAACCTACTACATTTGATCCACCAGTAAGTTATTGGATACTATTATCCCCATCTAATGCAGGAGTGATAGTGGAGGGAACAAATAATTCAGATAGGTGGCTGGCCACGATACTAATTGAGCCAAATGTAACGTCACAAAGCAGGACATATACTCTATTTGGACGGCAAGAACAAATAACAATTGAAAATGTTTCAACGACGAAATGGAAATTTGTAGATTTGGCTAAAACTGATGTTAATGGAACATTTACACAGCATGGACCACTATTGTCAGATACAAAGCTATATGGAGTGATGAAATTTAGTGGTAGACTATATACATATAATGGTGAGACACCGAATGCAACTACTGGTTATTACACAACAACTAATTATGACACAGTAAATATGACATCACATTGCGACTTTTATATTATACCACGATCTGAAGAAAACGCATGTACAAATTATATTAATAATGGGTTACCACCAATACAGAATACCAGAAACGTGGTTCCAGTGTCTCTAACTTCTAGATCAATTGTGCACACTAGAGCTCAGGCAAATGAAGATATTNTTGTATCAAAAACTTCATTATGGAAAGAAATGCAGTATAATAGAGATATAACTATACGTTTTAAGTTCGCAAATGCTATAATTAAATCTGGTGGTCTAGGATACCAAGTGGTCTGAAATTTCATTTAAACCAGCAAACTATCCAATATACCTATACCCGGGATGGGANNNAC






PEAK_LOC_FW
[75, 84, 93, 103, 113, 123, 133, 141, 152, 161, 174, 183, 198, 213, 223, 234, 240, 255, 262, 274, 289, 297, 305, 311, 326, 335, 347, 353, 364, 370, 380, 392, 406, 414, 422, 432, 443, 452, 466, 476, 486, 495, 504, 519, 534, 544, 558, 568, 585, 596, 607, 622, 633, 645, 660, 674, 685, 701, 714, 728, 744, 755, 762, 776, 785, 798, 810, 821, 832, 845, 857, 870, 880, 891, 907, 921, 932, 945, 955, 968, 982, 996, 1007, 1020, 1033, 1045, 1057, 1065, 1078, 1090, 1103, 1115, 1130, 1144, 1156, 1167, 1177, 1190, 1203, 1215, 1229, 1242, 1253, 1264, 1280, 1291, 1304, 1317, 1329, 1342, 1353, 1367, 1380, 1394, 1407, 1417, 1430, 1443, 1455, 1469, 1483, 1494, 1507, 1519, 1531, 1541, 1552, 1563, 1576, 1590, 1601, 1615, 1627, 1640, 1651, 1662, 1673, 1686, 1697, 1709, 1722, 1733, 1746, 1761, 1774, 1785, 1798, 1810, 1821, 1834, 1845, 1858, 1873, 1884, 1895, 1909, 1922, 1933, 1947, 1958, 1971, 1985, 1999, 2010, 2022, 2033, 2046, 2057, 2070, 2082, 2093, 2105, 2117, 2130, 2144, 2155, 2166, 2181, 2191, 2203, 2214, 2227, 2241, 2254, 2264, 2277, 2289, 2301, 2313, 2324, 2335, 2348, 2360, 2372, 2387, 2398, 2410, 2422, 2435, 2448, 2459, 2470, 2483, 2495, 2509, 2522, 2533, 2544, 2555, 2569, 2580, 2593, 2606, 2617, 2629, 2641, 2653, 2666, 2678, 2689, 2702, 2714, 2727, 2738, 2750, 2762, 2774, 2786, 2798, 2810, 2823, 2836, 2847, 2860, 2872, 2885, 2896, 2907, 2920, 2933, 2945, 2958, 2971, 2982, 2995, 3008, 3021, 3032, 3042, 3054, 3066, 3078, 3091, 3102, 3114, 3126, 3139, 3150, 3161, 3174, 3187, 3199, 3210, 3221, 3234, 3247, 3259, 3272, 3284, 3297, 3308, 3321, 3333, 3346, 3356, 3368, 3379, 3392, 3405, 3416, 3427, 3440, 3451, 3463, 3475, 3488, 3499, 3512, 3524, 3535, 3548, 3559, 3570, 3582, 3593, 3605, 3618, 3629, 3640, 3652, 3664, 3677, 3689, 3700, 3711, 3722, 3734, 3746, 3758, 3770, 3781, 3792, 3806, 3819, 3830, 3841, 3852, 3864, 3876, 3886, 3898, 3911, 3923, 3935, 3946, 3958, 3970, 3982, 3993, 4006, 4018, 4028, 4040, 4052, 4064, 4075, 4086, 4097, 4110, 4122, 4132, 4143, 4155, 4166, 4177, 4189, 4200, 4211, 4223, 4235, 4245, 4258, 4269, 4283, 4294, 4305, 4317, 4327, 4339, 4350, 4363, 4375, 4386, 4397, 4408, 4419, 4431, 4444, 4455, 4467, 4480, 4491, 4503, 4513, 4525, 4538, 4550, 4562, 4573, 4584, 4596, 4608, 4619, 4632, 4643, 4655, 4668, 4678, 4690, 4702, 4714, 4727, 4739, 4751, 4762, 4774, 4785, 4797, 4808, 4820, 4831, 4845, 4856, 4868, 4880, 4892, 4904, 4915, 4926, 4938, 4951, 4964, 4975, 4986, 4998, 5009, 5022, 5034, 5046, 5057, 5068, 5080, 5092, 5103, 5116, 5129, 5140, 5151, 5164, 5178, 5189, 5201, 5212, 5223, 5236, 5248, 5260, 5273, 5284, 5296, 5309, 5321, 5332, 5345, 5356, 5368, 5379, 5391, 5403, 5415, 5426, 5439, 5451, 5464, 5475, 5487, 5498, 5510, 5524, 5537, 5548, 5561, 5572, 5585, 5596, 5608, 5621, 5633, 5645, 5655, 5668, 5680, 5693, 5704, 5717, 5729, 5742, 5754, 5766, 5777, 5790, 5801, 5813, 5826, 5837, 5849, 5861, 5873, 5884, 5897, 5908, 5921, 5932, 5945, 5957, 5969, 5981, 5994, 6006, 6019, 6032, 6043, 6056, 6067, 6079, 6090, 6103, 6116, 6129, 6142, 6152, 6164, 6177, 6189, 6201, 6212, 6225, 6237, 6248, 6261, 6273, 6287, 6299, 6312, 6323, 6334, 6347, 6358, 6370, 6382, 6393, 6406, 6418, 6429, 6442, 6453, 6466, 6478, 6490, 6503, 6514, 6527, 6539, 6550, 6563, 6576, 6587, 6599, 6610, 6623, 6634, 6648, 6661, 6672, 6684, 6695, 6708, 6719, 6731, 6745, 6756, 6768, 6780, 6792, 6804, 6816, 6828, 6840, 6853, 6864, 6878, 6891, 6904, 6915, 6927, 6939, 6952, 6964, 6975, 6986, 6999, 7009, 7022, 7034, 7045, 7058, 7069, 7082, 7093, 7105, 7117, 7131, 7143, 7155, 7168, 7180, 7193, 7205, 7216, 7229, 7241, 7253, 7265, 7275, 7288, 7300, 7312, 7323, 7335, 7348, 7361, 7372, 7384, 7395, 7408, 7419, 7431, 7444, 7455, 7467, 7478, 7491, 7503, 7515, 7526, 7538, 7551, 7562, 7575, 7588, 7600, 7612, 7625, 7636, 7647, 7660, 7671, 7682, 7696, 7707, 7719, 7731, 7742, 7754, 7767, 7778, 7791, 7804, 7814, 7826, 7837, 7850, 7862, 7874, 7887, 7898, 7910, 7922, 7934, 7946, 7957, 7971, 7983, 7995, 8007, 8019, 8030, 8041, 8053, 8065, 8078, 8090, 8102, 8114, 8126, 8138, 8149, 8160, 8173, 8185, 8197, 8210, 8221, 8232, 8245, 8256, 8267, 8280, 8291, 8302, 8315, 8326, 8340, 8351, 8364, 8375, 8386, 8398, 8409, 8422, 8434, 8446, 8460, 8470, 8483, 8495, 8508, 8519, 8531, 8543, 8555, 8567, 8579, 8590, 8600, 8612, 8627, 8639, 8649, 8662, 8673, 8685, 8695, 8708, 8720, 8732, 8744, 8756, 8768, 8781, 8792, 8804, 8817, 8828, 8839, 8850, 8862, 8873, 8885, 8898, 8911, 8922, 8933, 8946, 8958, 8968, 8981, 8994, 9010, 9020, 9030, 9042, 9056, 9065, 9077, 9088, 9100, 9113, 9125, 9137, 9149, 9161, 9172, 9185, 9194, 9207, 9220, 9231, 9245, 9256, 9268, 9280, 9291, 9302, 9315, 9326, 9337, 9350, 9361, 9374, 9387, 9399, 9410, 9425, 9437, 9447, 9458, 9472, 9482, 9493, 9506, 9518, 9530, 9541, 9554, 9566, 9577, 9589, 9600, 9612, 9623, 9635, 9649, 9661, 9673, 9684, 9695, 9706, 9720, 9732, 9744, 9754, 9766, 9778, 9789, 9803, 9816, 9827, 9840, 9852, 9864, 9877, 9887, 9898, 9911, 9924, 9936, 9947, 9958, 9972, 9981, 9991, 10005, 10017, 10030, 10042, 10055, 10068, 10079, 10094, 10105, 10113, 10127, 10140, 10149, 10160, 10173, 10187, 10198, 10210, 10224, 10235, 10244, 10253, 10266, 10279, 10290, 10301, 10310, 10320, 10329, 10338, 10348, 10362, 10372, 10384, 10397, 10407, 10415, 10428, 10442, 10454, 10466, 10478, 10488, 10502, 10514, 10525, 10536, 10547, 10558, 10569, 10582, 10593, 10602, 10611, 10622, 10632, 10645, 10656, 10670, 10680, 10690, 10700, 10711, 10721, 10731, 10742, 10752, 10763, 10775, 10785, 10798, 10817, 10831, 10845, 10856, 10866, 10877, 10887, 10898, 10907, 10916, 10924, 10933, 10945, 10955, 10966, 10979, 10992, 11001, 11010, 11019, 11032, 11042, 11051, 11061, 11072, 11083, 11095, 11106, 11115, 11126, 11134, 11147, 11159, 11169, 11180, 11191, 11202, 11213, 11224, 11235, 11246, 11257, 11268, 11280, 11291, 11302, 11313, 11325, 11336, 11347, 11358, 11369, 11381, 11392, 11403, 11414, 11426, 11437, 11448, 11459, 11471, 11482, 11493, 11504, 11515, 11527, 11538, 11549, 11560, 11572, 11583, 11594, 11605, 11617, 11628, 11639, 11650, 11661, 11673, 11684, 11695, 11706, 11718, 11729, 11740, 11751, 11763, 11774, 11785, 11796, 11807, 11819, 11830, 11841, 11852, 11864, 11875, 11886, 11897, 11909, 11920, 11931, 11942, 11953, 11965, 11976, 11987, 11998, 12010, 12021, 12032, 12043, 12055, 12066, 12077, 12088, 12099, 12111, 12122, 12133, 12144, 12156, 12167, 12178, 12189, 12201, 12212, 12223, 12234, 12245, 12256, 12268, 12279, 12290, 12301, 12312, 12324, 12335, 12346, 12357, 12369, 12380, 12391, 12402, 12413, 12425, 12436, 12447, 12458, 12470, 12481, 12492, 12503, 12514, 12526, 12537, 12548, 12559, 12571, 12582, 12593, 12604, 12615, 12627, 12638, 12649, 12660, 12672, 12683, 12694, 12705, 12716, 12728, 12739, 12750, 12761, 12773, 12784, 12795, 12806, 12817, 12829, 12840, 12851, 12862, 12874, 12885, 12896, 12907, 12918, 12930, 12941, 12952, 12963, 12975, 12986, 12997, 13008, 13019, 13031, 13042, 13053, 13064, 13076, 13087, 13098, 13109, 13120, 13132, 13143, 13154, 13165, 13177, 13189, 13200, 13211, 13222, 13233, 13244, 13255, 13266, 13277, 13288, 13299, 13310, 13322, 13333, 13344, 13355, 13366, 13377, 13388, 13399, 13410, 13421, 13433, 13444, 13455, 13466, 13477, 13488, 13499, 13510, 13521, 13532, 13543, 13554, 13566, 13577, 13588, 13599, 13610, 13621, 13632, 13643, 13654, 13665, 13676, 13688, 13699, 13710, 13721, 13732, 13743, 13754, 13765, 13776, 13787, 13798, 13809, 13821, 13832, 13843, 13854, 13865, 13876, 13887, 13898, 13909, 13920, 13931, 13943, 13954, 13965, 13976, 13987, 13998, 14009, 14020, 14031, 14042, 14053, 14064, 14076, 14087, 14098, 14109, 14120, 14131, 14142, 14153, 14164, 14175, 14186, 14198, 14209, 14220, 14231, 14243, 14254, 14265, 14276, 14288, 14299, 14310, 14322, 14333, 14344, 14355, 14367, 14378, 14389, 14400, 14412, 14423, 14434, 14446, 14457, 14468, 14479, 14491, 14502, 14513, 14525, 14536, 14547, 14558, 14570, 14581, 14592, 14604, 14615, 14626, 14637, 14648, 14660, 14671, 14682, 14693, 14705, 14716, 14727, 14738, 14750, 14761, 14772, 14783, 14794, 14806, 14817, 14828, 14839, 14851, 14862, 14873, 14884, 14896, 14907, 14918, 14929, 14941, 14952, 14963, 14974, 14985, 14997, 15008, 15019, 15030, 15042, 15053, 15064, 15075, 15087, 15098, 15109, 15120, 15131, 15143, 15154, 15165, 15176, 15188, 15199, 15210, 15221, 15233, 15244, 15255, 15266, 15278, 15289, 15300, 15311, 15322, 15334, 15345, 15356, 15367, 15378, 15390, 15401, 15412, 15423, 15434, 15446, 15457, 15468, 15479, 15491, 15502, 15513, 15524, 15535, 15547, 15558, 15569, 15580, 15591, 15603, 15614, 15625, 15636, 15648]
PEAK_LOC_RV
[11, 22, 33, 44, 55, 67, 78, 89, 100, 111, 122, 134, 145, 156, 167, 178, 189, 201, 212, 223, 234, 245, 257, 268, 279, 290, 301, 312, 324, 335, 346, 357, 368, 379, 391, 402, 413, 424, 435, 446, 458, 469, 480, 491, 502, 514, 525, 536, 547, 558, 570, 581, 592, 603, 614, 625, 637, 648, 659, 670, 681, 693, 704, 715, 726, 737, 748, 760, 771, 782, 793, 804, 815, 827, 838, 849, 860, 871, 882, 893, 904, 916, 927, 938, 949, 960, 971, 982, 993, 1005, 1016, 1027, 1038, 1049, 1060, 1071, 1082, 1094, 1105, 1116, 1127, 1138, 1149, 1160, 1171, 1183, 1194, 1205, 1216, 1227, 1238, 1249, 1260, 1272, 1283, 1294, 1305, 1316, 1327, 1338, 1349, 1361, 1372, 1383, 1394, 1405, 1416, 1427, 1438, 1449, 1461, 1472, 1483, 1494, 1505, 1516, 1527, 1538, 1550, 1561, 1572, 1583, 1594, 1605, 1616, 1627, 1639, 1650, 1661, 1672, 1683, 1694, 1705, 1716, 1728, 1739, 1750, 1761, 1772, 1783, 1794, 1805, 1817, 1828, 1839, 1850, 1861, 1872, 1883, 1894, 1906, 1917, 1928, 1939, 1950, 1961, 1972, 1983, 1994, 2006, 2017, 2028, 2039, 2050, 2061, 2073, 2084, 2095, 2106, 2117, 2128, 2139, 2151, 2162, 2173, 2184, 2195, 2206, 2217, 2229, 2240, 2251, 2262, 2273, 2284, 2295, 2307, 2318, 2329, 2340, 2351, 2362, 2373, 2385, 2396, 2407, 2418, 2429, 2440, 2451, 2463, 2474, 2485, 2496, 2507, 2518, 2529, 2541, 2552, 2563, 2574, 2585, 2596, 2607, 2619, 2630, 2641, 2652, 2663, 2674, 2685, 2697, 2708, 2719, 2730, 2741, 2752, 2763, 2775, 2786, 2797, 2808, 2819, 2830, 2841, 2853, 2864, 2875, 2886, 2897, 2908, 2919, 2931, 2942, 2953, 2964, 2975, 2986, 2997, 3009, 3020, 3031, 3042, 3053, 3064, 3075, 3087, 3098, 3109, 3120, 3131, 3142, 3154, 3165, 3176, 3187, 3198, 3209, 3220, 3232, 3243, 3254, 3265, 3276, 3287, 3298, 3310, 3321, 3332, 3343, 3354, 3365, 3376, 3388, 3399, 3410, 3421, 3432, 3443, 3454, 3466, 3477, 3488, 3499, 3510, 3521, 3532, 3544, 3555, 3566, 3577, 3588, 3599, 3610, 3622, 3633, 3644, 3655, 3666, 3677, 3688, 3700, 3711, 3722, 3733, 3744, 3755, 3766, 3778, 3789, 3800, 3811, 3822, 3833, 3844, 3856, 3867, 3878, 3889, 3900, 3911, 3922, 3934, 3945, 3956, 3967, 3978, 3989, 4000, 4012, 4023, 4034, 4045, 4056, 4067, 4078, 4090, 4101, 4112, 4123, 4134, 4145, 4156, 4168, 4179, 4190, 4201, 4212, 4223, 4234, 4245, 4256, 4266, 4277, 4288, 4298, 4309, 4319, 4331, 4343, 4355, 4367, 4379, 4389, 4401, 4415, 4428, 4441, 4452, 4463, 4474, 4483, 4497, 4511, 4523, 4541, 4550, 4561, 4572, 4585, 4597, 4607, 4619, 4631, 4642, 4654, 4666, 4681, 4690, 4701, 4716, 4726, 4736, 4747, 4760, 4773, 4783, 4792, 4805, 4817, 4829, 4843, 4855, 4866, 4875, 4889, 4898, 4907, 4918, 4926, 4936, 4948, 4962, 4972, 4984, 4996, 5007, 5021, 5030, 5043, 5055, 5068, 5080, 5090, 5102, 5117, 5126, 5135, 5151, 5162, 5175, 5186, 5197, 5209, 5224, 5236, 5249, 5262, 5271, 5283, 5293, 5302, 5310, 5319, 5332, 5341, 5353, 5366, 5378, 5390, 5402, 5414, 5425, 5437, 5450, 5463, 5476, 5486, 5496, 5508, 5523, 5537, 5547, 5560, 5570, 5583, 5595, 5607, 5619, 5632, 5642, 5653, 5664, 5679, 5690, 5704, 5717, 5727, 5740, 5753, 5766, 5778, 5789, 5799, 5810, 5823, 5837, 5848, 5860, 5875, 5884, 5897, 5909, 5921, 5933, 5945, 5958, 5969, 5981, 5993, 6005, 6018, 6029, 6042, 6055, 6068, 6080, 6090, 6102, 6115, 6125, 6139, 6150, 6162, 6173, 6187, 6198, 6210, 6223, 6236, 6246, 6259, 6270, 6281, 6293, 6306, 6318, 6329, 6342, 6355, 6367, 6379, 6390, 6403, 6414, 6425, 6436, 6450, 6462, 6474, 6487, 6499, 6510, 6523, 6536, 6548, 6561, 6570, 6583, 6595, 6607, 6619, 6633, 6644, 6657, 6668, 6680, 6693, 6704, 6715, 6727, 6739, 6752, 6764, 6776, 6787, 6800, 6814, 6826, 6837, 6848, 6860, 6873, 6885, 6897, 6910, 6922, 6933, 6946, 6958, 6969, 6982, 6995, 7007, 7018, 7029, 7041, 7053, 7065, 7075, 7089, 7102, 7114, 7125, 7139, 7151, 7163, 7175, 7186, 7199, 7211, 7223, 7235, 7247, 7258, 7270, 7282, 7295, 7307, 7317, 7330, 7342, 7354, 7366, 7378, 7390, 7401, 7411, 7425, 7437, 7450, 7463, 7475, 7485, 7498, 7510, 7522, 7534, 7545, 7557, 7570, 7581, 7593, 7606, 7618, 7630, 7642, 7653, 7665, 7677, 7689, 7701, 7712, 7723, 7735, 7748, 7760, 7772, 7783, 7795, 7807, 7820, 7832, 7844, 7856, 7867, 7879, 7891, 7902, 7914, 7927, 7939, 7952, 7964, 7975, 7987, 8000, 8013, 8024, 8035, 8048, 8060, 8072, 8083, 8096, 8108, 8121, 8134, 8145, 8158, 8170, 8181, 8194, 8206, 8218, 8230, 8243, 8254, 8266, 8277, 8289, 8302, 8314, 8327, 8339, 8352, 8364, 8375, 8388, 8399, 8410, 8423, 8435, 8447, 8458, 8471, 8483, 8496, 8507, 8519, 8532, 8544, 8557, 8569, 8581, 8595, 8606, 8619, 8632, 8643, 8655, 8666, 8678, 8690, 8702, 8716, 8727, 8739, 8751, 8763, 8774, 8786, 8798, 8810, 8822, 8834, 8847, 8859, 8871, 8883, 8896, 8908, 8920, 8932, 8945, 8956, 8969, 8980, 8992, 9004, 9017, 9030, 9042, 9053, 9065, 9076, 9089, 9101, 9114, 9126, 9137, 9149, 9161, 9172, 9184, 9196, 9208, 9221, 9234, 9245, 9257, 9270, 9282, 9294, 9307, 9319, 9331, 9342, 9355, 9367, 9379, 9392, 9403, 9415, 9426, 9439, 9450, 9462, 9475, 9487, 9498, 9510, 9522, 9534, 9546, 9559, 9570, 9581, 9593, 9606, 9619, 9632, 9643, 9655, 9667, 9679, 9691, 9702, 9714, 9726, 9739, 9750, 9762, 9774, 9786, 9798, 9811, 9823, 9834, 9845, 9857, 9869, 9882, 9893, 9906, 9918, 9931, 9944, 9956, 9967, 9978, 9991, 10002, 10014, 10027, 10039, 10052, 10064, 10076, 10087, 10099, 10111, 10121, 10134, 10146, 10159, 10171, 10182, 10194, 10206, 10218, 10230, 10242, 10254, 10268, 10279, 10291, 10302, 10315, 10326, 10337, 10350, 10362, 10374, 10385, 10397, 10410, 10420, 10432, 10444, 10456, 10467, 10478, 10491, 10503, 10514, 10527, 10538, 10550, 10562, 10573, 10585, 10597, 10609, 10622, 10633, 10645, 10656, 10668, 10679, 10690, 10704, 10716, 10726, 10738, 10749, 10761, 10773, 10784, 10796, 10809, 10819, 10831, 10842, 10854, 10865, 10878, 10889, 10901, 10913, 10926, 10937, 10950, 10960, 10972, 10984, 10995, 11007, 11020, 11031, 11043, 11056, 11067, 11079, 11091, 11101, 11113, 11125, 11135, 11146, 11157, 11170, 11181, 11193, 11205, 11216, 11228, 11240, 11252, 11265, 11276, 11287, 11299, 11310, 11322, 11333, 11344, 11355, 11366, 11379, 11390, 11402, 11414, 11426, 11437, 11448, 11460, 11472, 11483, 11494, 11504, 11516, 11527, 11540, 11551, 11560, 11574, 11586, 11598, 11609, 11620, 11631, 11642, 11655, 11667, 11678, 11690, 11703, 11715, 11726, 11738, 11749, 11760, 11771, 11783, 11795, 11805, 11816, 11827, 11840, 11853, 11864, 11876, 11888, 11900, 11912, 11924, 11936, 11946, 11958, 11969, 11982, 11993, 12004, 12017, 12029, 12042, 12054, 12067, 12079, 12091, 12102, 12113, 12123, 12137, 12149, 12161, 12173, 12186, 12198, 12208, 12221, 12231, 12244, 12255, 12266, 12278, 12290, 12301, 12313, 12326, 12337, 12350, 12362, 12373, 12385, 12395, 12407, 12420, 12432, 12444, 12458, 12469, 12481, 12493, 12504, 12517, 12529, 12542, 12553, 12565, 12576, 12587, 12601, 12614, 12625, 12638, 12649, 12662, 12675, 12688, 12702, 12713, 12725, 12736, 12747, 12760, 12772, 12787, 12798, 12812, 12823, 12835, 12846, 12858, 12871, 12884, 12896, 12906, 12919, 12931, 12944, 12956, 12968, 12981, 12991, 13005, 13016, 13029, 13043, 13054, 13067, 13080, 13093, 13104, 13115, 13127, 13139, 13150, 13164, 13175, 13190, 13201, 13211, 13225, 13236, 13249, 13263, 13275, 13288, 13299, 13313, 13325, 13339, 13350, 13363, 13375, 13389, 13400, 13412, 13425, 13439, 13451, 13464, 13475, 13489, 13501, 13512, 13526, 13538, 13549, 13561, 13571, 13584, 13596, 13608, 13621, 13633, 13645, 13658, 13672, 13686, 13697, 13710, 13722, 13736, 13748, 13758, 13772, 13782, 13794, 13805, 13818, 13831, 13845, 13856, 13869, 13882, 13896, 13908, 13921, 13933, 13948, 13960, 13970, 13983, 13993, 14006, 14020, 14030, 14045, 14057, 14072, 14083, 14097, 14107, 14120, 14130, 14143, 14158, 14172, 14182, 14196, 14206, 14222, 14234, 14246, 14258, 14269, 14281, 14291, 14303, 14319, 14330, 14342, 14355, 14368, 14382, 14393, 14406, 14420, 14433, 14445, 14459, 14472, 14482, 14495, 14505, 14519, 14532, 14544, 14553, 14566, 14579, 14592, 14608, 14620, 14631, 14644, 14656, 14666, 14678, 14690, 14705, 14717, 14727, 14741, 14753, 14765, 14777, 14787, 14796, 14804, 14815, 14828, 14843, 14855, 14865, 14877, 14889, 14902, 14915, 14925, 14936, 14949, 14962, 14974, 14985, 14997, 15010, 15021, 15033, 15044, 15053, 15062, 15073, 15086, 15100, 15115, 15126, 15138, 15151, 15162, 15173, 15185, 15201, 15211, 15221, 15231, 15239, 15247, 15257, 15270, 15281, 15289, 15299, 15307, 15322, 15335, 15345, 15351, 15361, 15371, 15385, 15397, 15408, 15419, 15427, 15435, 15443, 15452, 15463, 15477, 15483, 15493, 15504, 15515, 15526, 15537, 15547]





CHANNELS_FW
{'DATA9': (0, 0, 0, 0, 0, 0, 0, 0, 0, 0, 0, 0, 0, 0, 0, 0, 0, 0, 0, 0, 0, 0, 0, 0, 0, 0, 0, 0, 0, 0, 0, 0, 0, 0, 0, 0, 0, 0, 0, 0, 0, 0, 3, 12, 26, 46, 72, 104, 138, 176, 214, 254, 293, 329, 359, 382, 400, 412, 421, 426, 431, 434, 435, 436, 435, 433, 429, 424, 416, 406, 392, 375, 355, 329, 300, 266, 230, 193, 158, 125, 98, 76, 59, 47, 38, 31, 27, 24, 23, 24, 29, 38, 51, 69, 90, 112, 134, 155, 174, 190, 203, 213, 221, 226, 229, 228, 223, 216, 208, 199, 188, 177, 164, 148, 128, 104, 79, 54, 33, 18, 7, 2, 0, 0, 0, 0, 0, 0, 0, 0, 0, 0, 0, 0, 0, 0, 1, 4, 9, 17, 29, 46, 68, 99, 139, 190, 252, 322, 396, 469, 536, 590, 631, 656, 668, 670, 667, 662, 657, 653, 648, 636, 613, 576, 524, 457, 381, 302, 227, 161, 108, 71, 50, 44, 53, 74, 104, 141, 181, 220, 255, 283, 304, 317, 322, 321, 316, 309, 301, 293, 284, 272, 255, 233, 206, 175, 141, 107, 76, 49, 28, 14, 5, 1, 0, 0, 0, 0, 0, 0, 0, 0, 0, 0, 0, 0, 0, 0, 0, 0, 0, 0, 0, 6, 22, 47, 84, 134, 190, 249, 304, 352, 390, 416, 430, 436, 436, 433, 429, 424, 415, 399, 374, 339, 294, 243, 189, 137, 89, 52, 26, 10, 1, 0, 0, 0, 0, 0, 0, 0, 0, 0, 3, 11, 27, 50, 82, 121, 165, 210, 254, 293, 325, 348, 362, 368, 367, 362, 352, 339, 322, 300, 273, 240, 203, 163, 125, 89, 59, 35, 19, 8, 2, 3, 13, 30, 59, 102, 158, 223, 295, 366, 431, 483, 522, 547, 559, 563, 563, 560, 554, 544, 524, 491, 446, 388, 321, 250, 184, 124, 76, 42, 20, 7, 1, 0, 1, 2, 4, 5, 7, 6, 6, 4, 3, 1, 0, 0, 0, 0, 0, 0, 0, 0, 0, 0, 0, 0, 0, 0, 0, 0, 0, 0, 0, 0, 0, 0, 0, 0, 0, 2, 7, 15, 26, 41, 56, 70, 81, 88, 90, 89, 84, 77, 71, 65, 59, 53, 45, 36, 26, 17, 9, 4, 1, 0, 0, 0, 0, 0, 0, 0, 0, 1, 5, 10, 18, 27, 36, 43, 49, 52, 54, 54, 53, 50, 47, 40, 33, 25, 17, 10, 5, 1, 0, 0, 0, 0, 0, 0, 0, 0, 0, 0, 0, 0, 0, 0, 0, 0, 0, 0, 0, 0, 0, 0, 0, 0, 0, 0, 0, 0, 0, 0, 0, 0, 0, 0, 0, 0, 0, 0, 0, 0, 0, 0, 11, 38, 85, 157, 259, 384, 520, 655, 775, 870, 934, 968, 980, 976, 965, 948, 925, 892, 848, 796, 741, 687, 643, 607, 582, 565, 555, 549, 544, 538, 525, 502, 463, 410, 344, 271, 198, 132, 79, 41, 18, 4, 0, 0, 0, 0, 0, 0, 0, 0, 0, 0, 0, 0, 0, 0, 0, 0, 0, 0, 0, 0, 0, 0, 0, 0, 0, 0, 0, 0, 0, 0, 0, 0, 0, 2, 13, 35, 70, 120, 185, 257, 329, 396, 451, 492, 518, 532, 536, 530, 515, 487, 446, 391, 325, 254, 184, 122, 76, 47, 39, 48, 75, 114, 162, 213, 260, 301, 333, 354, 366, 369, 365, 352, 330, 299, 258, 211, 162, 114, 73, 41, 20, 7, 1, 0, 0, 0, 1, 4, 7, 14, 23, 34, 48, 62, 77, 90, 99, 104, 106, 104, 100, 94, 89, 83, 76, 67, 56, 44, 32, 21, 13, 8, 6, 5, 6, 6, 5, 4, 2, 1, 0, 0, 0, 4, 16, 34, 62, 100, 145, 192, 239, 282, 318, 345, 362, 369, 367, 354, 331, 298, 256, 207, 153, 101, 59, 29, 9, 0, 0, 0, 0, 0, 0, 0, 0, 0, 0, 0, 0, 0, 0, 0, 0, 0, 0, 0, 0, 0, 0, 3, 9, 18, 31, 46, 61, 73, 82, 87, 88, 86, 83, 77, 71, 63, 54, 44, 34, 23, 14, 8, 3, 1, 0, 0, 0, 0, 0, 0, 0, 0, 0, 0, 0, 0, 2, 15, 42, 85, 145, 222, 305, 386, 459, 518, 561, 587, 596, 589, 562, 518, 456, 380, 298, 216, 142, 83, 43, 17, 3, 0, 0, 0, 0, 0, 0, 0, 0, 0, 0, 0, 0, 0, 0, 0, 0, 0, 0, 0, 0, 0, 0, 0, 0, 0, 0, 0, 0, 0, 0, 0, 0, 0, 0, 0, 0, 0, 0, 0, 0, 0, 3, 8, 16, 25, 37, 46, 53, 57, 57, 53, 46, 38, 28, 18, 11, 5, 1, 0, 0, 0, 0, 0, 0, 0, 0, 0, 0, 0, 0, 0, 0, 0, 0, 0, 0, 0, 0, 0, 0, 0, 0, 0, 0, 0, 0, 0, 0, 0, 0, 0, 0, 0, 0, 0, 0, 0, 0, 0, 0, 0, 2, 4, 5, 6, 6, 4, 3, 1, 0, 0, 0, 0, 0, 0, 0, 0, 0, 0, 0, 0, 0, 0, 0, 0, 0, 0, 0, 0, 0, 0, 0, 0, 0, 0, 0, 0, 0, 0, 0, 0, 0, 0, 0, 0, 0, 0, 0, 0, 0, 0, 0, 0, 0, 4, 16, 38, 70, 116, 171, 231, 291, 347, 395, 434, 459, 471, 473, 468, 463, 465, 486, 529, 595, 679, 772, 864, 943, 1002, 1036, 1041, 1015, 957, 868, 753, 622, 487, 360, 251, 165, 104, 65, 41, 29, 24, 23, 23, 25, 26, 26, 25, 25, 23, 21, 19, 16, 12, 8, 5, 2, 1, 0, 0, 0, 0, 0, 0, 0, 0, 0, 0, 0, 0, 0, 0, 0, 0, 1, 2, 2, 2, 1, 0, 0, 0, 0, 0, 0, 0, 0, 0, 0, 0, 0, 0, 0, 0, 0, 0, 0, 0, 0, 0, 0, 0, 0, 0, 0, 0, 0, 0, 0, 0, 0, 0, 0, 0, 0, 4, 24, 62, 123, 208, 316, 432, 546, 648, 732, 791, 825, 833, 814, 766, 691, 593, 479, 360, 249, 156, 87, 42, 16, 3, 0, 0, 0, 0, 0, 0, 0, 0, 0, 0, 0, 0, 0, 0, 0, 0, 0, 0, 0, 0, 0, 0, 0, 0, 0, 0, 0, 0, 0, 0, 0, 0, 0, 0, 0, 0, 0, 0, 0, 0, 0, 1, 2, 3, 4, 4, 5, 4, 4, 3, 3, 2, 2, 1, 1, 0, 0, 0, 0, 0, 0, 0, 0, 0, 0, 0, 0, 0, 0, 0, 0, 0, 0, 0, 0, 0, 0, 0, 0, 0, 0, 0, 0, 0, 10, 43, 104, 195, 319, 468, 625, 775, 907, 1012, 1080, 1104, 1082, 1014, 909, 782, 654, 543, 467, 432, 437, 475, 533, 595, 651, 686, 695, 675, 626, 551, 460, 363, 268, 188, 127, 89, 72, 72, 82, 96, 109, 117, 117, 111, 100, 85, 67, 48, 31, 18, 8, 2, 0, 0, 0, 0, 0, 0, 0, 0, 0, 0, 0, 0, 0, 0, 0, 1, 1, 1, 1, 0, 0, 0, 0, 0, 7, 22, 48, 84, 133, 187, 242, 293, 338, 370, 387, 387, 369, 335, 289, 235, 180, 127, 80, 46, 22, 7, 0, 0, 0, 0, 10, 32, 67, 115, 177, 241, 302, 353, 388, 406, 405, 387, 350, 300, 238, 171, 110, 62, 28, 7, 0, 0, 0, 0, 0, 0, 0, 0, 0, 0, 0, 0, 0, 0, 0, 0, 0, 0, 0, 0, 0, 0, 0, 0, 0, 0, 0, 0, 6, 21, 47, 86, 137, 196, 256, 312, 359, 393, 411, 412, 396, 362, 313, 253, 190, 129, 78, 42, 18, 4, 0, 0, 0, 0, 0, 14, 46, 96, 165, 255, 348, 436, 510, 564, 595, 600, 580, 533, 464, 376, 280, 186, 110, 54, 19, 1, 0, 0, 0, 0, 0, 0, 0, 0, 0, 0, 0, 0, 0, 0, 0, 0, 0, 0, 0, 0, 0, 0, 0, 0, 0, 0, 0, 0, 0, 0, 0, 0, 0, 0, 0, 0, 0, 0, 0, 0, 0, 9, 41, 99, 189, 312, 459, 612, 753, 866, 941, 968, 946, 882, 782, 663, 541, 434, 358, 324, 331, 372, 433, 499, 552, 580, 578, 546, 494, 434, 385, 361, 372, 421, 500, 597, 694, 774, 824, 837, 810, 749, 666, 578, 504, 459, 454, 488, 552, 631, 707, 765, 791, 781, 734, 654, 548, 429, 308, 199, 114, 55, 19, 2, 0, 0, 0, 0, 0, 1, 1, 1, 1, 0, 0, 0, 0, 0, 0, 0, 0, 0, 0, 0, 0, 0, 0, 0, 0, 0, 0, 0, 0, 0, 0, 0, 0, 0, 0, 0, 0, 0, 1, 21, 65, 140, 249, 396, 562, 732, 888, 1015, 1096, 1123, 1092, 1009, 887, 744, 604, 489, 414, 388, 406, 459, 529, 598, 647, 669, 656, 610, 536, 443, 341, 242, 154, 87, 41, 14, 1, 0, 0, 0, 3, 17, 44, 88, 151, 230, 317, 404, 481, 539, 574, 578, 552, 498, 424, 336, 246, 163, 96, 49, 19, 4, 0, 0, 0, 1, 3, 6, 11, 19, 31, 49, 71, 94, 117, 135, 146, 149, 144, 131, 113, 92, 69, 47, 28, 15, 6, 1, 0, 0, 0, 0, 0, 0, 0, 0, 0, 0, 0, 0, 0, 0, 0, 0, 0, 0, 0, 0, 0, 0, 0, 0, 0, 0, 0, 0, 0, 0, 0, 0, 0, 0, 0, 0, 0, 0, 0, 0, 0, 0, 0, 0, 0, 0, 0, 0, 0, 0, 0, 0, 0, 0, 0, 0, 0, 0, 0, 2, 25, 72, 147, 254, 391, 538, 679, 800, 887, 931, 927, 874, 779, 651, 508, 365, 236, 136, 68, 27, 6, 0, 0, 0, 0, 1, 1, 1, 1, 0, 0, 0, 0, 0, 0, 0, 0, 0, 0, 0, 0, 0, 0, 0, 0, 0, 0, 0, 0, 0, 0, 0, 0, 0, 0, 0, 0, 0, 0, 0, 0, 0, 0, 0, 0, 0, 0, 0, 0, 0, 0, 0, 0, 0, 0, 0, 0, 0, 0, 0, 0, 0, 0, 0, 0, 0, 0, 0, 0, 0, 0, 0, 0, 0, 0, 0, 0, 0, 0, 0, 0, 0, 0, 0, 0, 0, 0, 0, 0, 1, 2, 2, 2, 2, 2, 1, 0, 0, 0, 0, 0, 0, 0, 0, 0, 0, 0, 0, 0, 0, 0, 0, 0, 0, 0, 0, 0, 0, 0, 0, 0, 0, 0, 0, 3, 14, 35, 70, 119, 178, 242, 302, 352, 385, 397, 386, 353, 302, 239, 171, 109, 61, 28, 8, 0, 0, 0, 0, 0, 0, 0, 0, 0, 0, 0, 0, 0, 0, 0, 0, 0, 0, 0, 0, 3, 26, 74, 149, 253, 384, 517, 637, 728, 780, 785, 747, 670, 564, 442, 318, 204, 117, 56, 19, 2, 0, 1, 3, 7, 10, 12, 14, 13, 11, 8, 5, 3, 1, 0, 0, 0, 0, 0, 0, 0, 0, 0, 0, 0, 0, 0, 0, 0, 0, 0, 0, 0, 0, 0, 0, 0, 0, 0, 0, 0, 0, 0, 0, 0, 0, 0, 0, 0, 0, 0, 0, 0, 4, 16, 38, 74, 124, 185, 250, 312, 361, 391, 399, 383, 346, 293, 231, 167, 107, 62, 29, 9, 0, 0, 0, 0, 0, 0, 0, 0, 0, 0, 0, 0, 0, 0, 0, 0, 0, 0, 0, 1, 1, 1, 1, 0, 0, 0, 0, 0, 0, 0, 0, 0, 0, 0, 0, 0, 0, 0, 0, 0, 0, 0, 0, 0, 0, 0, 0, 0, 0, 0, 0, 0, 0, 0, 0, 1, 20, 64, 136, 238, 373, 518, 656, 769, 841, 862, 830, 749, 631, 492, 351, 222, 125, 58, 19, 1, 0, 1, 4, 6, 8, 11, 12, 12, 11, 10, 7, 5, 2, 1, 0, 0, 0, 0, 13, 43, 95, 169, 267, 373, 473, 553, 601, 610, 580, 518, 442, 370, 326, 325, 376, 474, 606, 747, 873, 960, 993, 964, 878, 747, 591, 429, 279, 163, 81, 30, 5, 0, 0, 0, 0, 0, 0, 0, 0, 0, 0, 0, 0, 0, 0, 0, 0, 0, 0, 0, 0, 0, 0, 0, 0, 0, 0, 0, 0, 0, 0, 0, 0, 0, 0, 0, 0, 0, 0, 0, 0, 0, 0, 0, 0, 0, 0, 0, 0, 0, 0, 0, 0, 0, 0, 0, 0, 0, 0, 0, 0, 0, 0, 0, 0, 0, 0, 0, 0, 0, 0, 0, 0, 0, 0, 0, 0, 0, 0, 0, 0, 0, 0, 0, 0, 0, 0, 0, 0, 0, 0, 0, 0, 0, 0, 0, 0, 2, 3, 4, 5, 5, 4, 3, 1, 0, 0, 0, 0, 0, 0, 0, 0, 0, 0, 0, 0, 0, 0, 0, 0, 0, 0, 0, 0, 0, 0, 0, 0, 0, 0, 0, 0, 0, 0, 0, 0, 0, 0, 0, 0, 0, 0, 0, 0, 0, 0, 0, 0, 0, 0, 0, 0, 0, 0, 0, 0, 0, 1, 4, 6, 8, 10, 8, 6, 4, 1, 0, 0, 0, 0, 0, 0, 0, 0, 0, 0, 0, 0, 0, 0, 0, 0, 0, 0, 0, 0, 0, 0, 0, 0, 0, 0, 0, 1, 2, 2, 2, 2, 2, 1, 0, 0, 0, 0, 0, 0, 0, 0, 0, 0, 0, 0, 0, 0, 0, 0, 0, 0, 0, 0, 0, 0, 0, 0, 0, 0, 0, 0, 0, 0, 0, 0, 0, 0, 0, 0, 0, 0, 0, 0, 0, 0, 0, 0, 0, 0, 0, 0, 0, 0, 0, 0, 0, 0, 0, 0, 0, 0, 0, 0, 0, 7, 23, 47, 78, 117, 156, 187, 209, 216, 210, 190, 161, 125, 90, 57, 32, 15, 5, 1, 2, 3, 6, 9, 11, 11, 9, 6, 4, 1, 0, 0, 0, 0, 0, 0, 0, 0, 0, 0, 0, 0, 0, 0, 0, 0, 0, 0, 0, 0, 0, 0, 0, 0, 0, 0, 0, 0, 0, 0, 0, 0, 0, 0, 0, 0, 0, 2, 4, 7, 9, 12, 12, 12, 9, 6, 3, 1, 0, 0, 0, 0, 0, 0, 0, 0, 0, 0, 0, 0, 0, 0, 0, 0, 0, 0, 0, 2, 7, 16, 30, 48, 67, 85, 98, 105, 107, 106, 106, 111, 125, 149, 182, 220, 257, 286, 300, 297, 274, 235, 184, 130, 82, 44, 19, 4, 0, 0, 0, 0, 0, 0, 0, 0, 0, 0, 0, 0, 0, 0, 0, 0, 1, 2, 2, 2, 3, 5, 10, 20, 35, 54, 73, 90, 102, 108, 110, 112, 122, 143, 180, 231, 291, 352, 407, 446, 460, 446, 405, 341, 263, 183, 112, 60, 26, 6, 0, 0, 0, 0, 0, 0, 0, 0, 0, 0, 0, 0, 0, 0, 0, 0, 0, 0, 0, 0, 0, 0, 0, 0, 2, 3, 4, 5, 7, 7, 7, 7, 5, 4, 2, 1, 0, 0, 0, 0, 0, 0, 0, 0, 0, 0, 1, 2, 3, 3, 3, 2, 1, 0, 0, 23, 77, 168, 301, 475, 664, 842, 985, 1068, 1080, 1018, 891, 724, 546, 386, 273, 221, 231, 290, 380, 475, 553, 599, 603, 564, 489, 389, 281, 179, 101, 46, 14, 0, 1, 4, 8, 11, 15, 18, 18, 15, 11, 8, 4, 1, 0, 0, 0, 0, 0, 0, 0, 0, 2, 4, 7, 10, 13, 15, 15, 15, 14, 14, 12, 10, 7, 5, 2, 0, 0, 0, 0, 0, 0, 0, 0, 0, 0, 0, 0, 0, 0, 0, 0, 0, 0, 0, 0, 0, 0, 1, 3, 5, 8, 10, 10, 9, 7, 4, 2, 0, 0, 0, 0, 0, 0, 0, 0, 0, 0, 0, 0, 0, 0, 0, 0, 0, 0, 0, 0, 0, 0, 0, 0, 0, 0, 0, 0, 0, 0, 0, 0, 0, 0, 0, 0, 0, 0, 0, 4, 13, 23, 37, 52, 64, 70, 70, 62, 49, 34, 20, 9, 2, 0, 0, 0, 0, 0, 0, 0, 0, 0, 0, 0, 0, 0, 0, 0, 0, 0, 0, 0, 0, 0, 0, 0, 0, 0, 0, 0, 0, 0, 0, 0, 0, 0, 0, 0, 0, 0, 0, 0, 0, 0, 0, 0, 0, 0, 0, 0, 0, 0, 0, 0, 0, 0, 0, 0, 0, 0, 0, 0, 0, 0, 0, 0, 0, 0, 0, 0, 0, 0, 0, 0, 0, 0, 0, 0, 0, 0, 0, 0, 0, 0, 0, 0, 0, 0, 0, 0, 0, 0, 0, 0, 0, 0, 8, 26, 53, 86, 123, 154, 171, 171, 156, 128, 94, 61, 35, 16, 4, 0, 0, 0, 0, 0, 0, 0, 0, 0, 0, 0, 0, 0, 0, 0, 0, 0, 0, 14, 58, 136, 250, 398, 563, 714, 828, 886, 878, 807, 684, 530, 368, 227, 122, 50, 11, 0, 0, 0, 0, 0, 0, 0, 0, 0, 0, 0, 0, 0, 0, 0, 0, 0, 0, 1, 14, 40, 82, 139, 208, 275, 327, 354, 348, 312, 255, 195, 151, 145, 191, 294, 445, 623, 799, 940, 1022, 1025, 952, 815, 640, 454, 285, 158, 71, 20, 0, 0, 0, 0, 0, 0, 2, 16, 41, 81, 136, 202, 269, 326, 363, 374, 355, 310, 245, 171, 107, 57, 23, 4, 0, 0, 0, 0, 0, 0, 0, 9, 42, 102, 191, 311, 450, 584, 691, 756, 766, 719, 623, 497, 361, 238, 142, 81, 51, 44, 47, 51, 48, 39, 27, 16, 7, 1, 0, 0, 0, 0, 0, 0, 0, 0, 0, 0, 0, 0, 0, 0, 0, 0, 0, 0, 0, 0, 0, 4, 24, 62, 120, 197, 289, 377, 448, 489, 493, 457, 388, 297, 200, 120, 59, 20, 1, 0, 0, 0, 0, 0, 0, 0, 10, 48, 118, 222, 358, 514, 656, 764, 817, 807, 737, 621, 484, 352, 252, 201, 208, 267, 360, 464, 555, 611, 620, 580, 500, 394, 279, 175, 96, 42, 11, 0, 0, 0, 0, 0, 0, 6, 24, 58, 111, 185, 273, 363, 440, 490, 503, 476, 415, 335, 257, 205, 198, 244, 341, 470, 608, 724, 795, 806, 756, 655, 528, 404, 312, 274, 299, 380, 495, 615, 710, 759, 750, 687, 585, 464, 345, 246, 176, 135, 118, 115, 118, 117, 108, 91, 68, 45, 25, 10, 1, 0, 0, 0, 0, 0, 0, 0, 0, 0, 0, 0, 0, 0, 0, 0, 0, 0, 0, 0, 0, 0, 0, 0, 0, 0, 0, 0, 0, 0, 0, 0, 0, 0, 0, 0, 0, 0, 0, 0, 0, 0, 0, 0, 0, 0, 0, 0, 0, 0, 0, 0, 0, 0, 0, 0, 0, 0, 0, 0, 0, 0, 0, 0, 0, 0, 0, 0, 0, 0, 0, 0, 0, 0, 0, 0, 0, 0, 0, 0, 0, 0, 0, 0, 0, 0, 0, 0, 0, 0, 0, 0, 0, 0, 0, 0, 0, 0, 0, 0, 0, 0, 0, 0, 0, 0, 0, 0, 0, 0, 0, 0, 0, 0, 0, 0, 0, 0, 0, 0, 0, 0, 0, 0, 0, 0, 0, 0, 0, 0, 0, 0, 1, 1, 1, 1, 1, 0, 4, 16, 37, 70, 115, 167, 220, 267, 300, 313, 304, 273, 226, 169, 111, 65, 32, 10, 0, 0, 0, 0, 0, 0, 0, 0, 0, 0, 0, 0, 0, 0, 0, 0, 0, 0, 0, 0, 0, 0, 0, 0, 1, 2, 2, 2, 2, 2, 2, 11, 34, 73, 131, 204, 282, 353, 403, 426, 417, 381, 330, 280, 248, 252, 299, 388, 505, 630, 738, 809, 827, 788, 697, 568, 421, 276, 161, 78, 26, 2, 0, 0, 0, 0, 0, 13, 48, 111, 209, 346, 508, 676, 824, 927, 966, 930, 828, 682, 524, 388, 303, 285, 333, 434, 563, 692, 792, 841, 827, 751, 625, 471, 316, 187, 93, 34, 5, 0, 0, 0, 0, 0, 0, 0, 0, 0, 0, 2, 3, 3, 3, 3, 2, 1, 0, 11, 45, 106, 199, 324, 469, 612, 731, 807, 827, 789, 703, 589, 478, 399, 375, 416, 513, 644, 780, 887, 940, 924, 842, 706, 540, 369, 224, 117, 47, 9, 0, 0, 0, 0, 0, 0, 0, 0, 0, 0, 0, 0, 0, 0, 0, 0, 0, 0, 0, 0, 0, 0, 0, 0, 0, 0, 0, 0, 0, 0, 0, 0, 0, 0, 0, 0, 0, 0, 0, 0, 0, 9, 29, 61, 105, 159, 211, 253, 277, 279, 259, 221, 173, 121, 76, 41, 18, 4, 0, 0, 0, 0, 0, 0, 0, 0, 0, 0, 0, 0, 0, 0, 0, 0, 0, 0, 0, 0, 0, 0, 0, 0, 0, 0, 0, 0, 0, 0, 0, 0, 0, 0, 0, 0, 0, 0, 0, 0, 0, 0, 0, 0, 0, 0, 0, 0, 0, 0, 0, 0, 0, 5, 18, 38, 63, 94, 122, 143, 153, 151, 136, 115, 88, 60, 36, 19, 7, 2, 0, 0, 0, 0, 0, 0, 0, 0, 0, 0, 0, 0, 0, 0, 0, 0, 0, 0, 0, 0, 0, 0, 0, 0, 0, 0, 0, 0, 0, 0, 0, 0, 12, 45, 104, 191, 308, 439, 563, 661, 714, 713, 657, 556, 429, 297, 182, 97, 41, 10, 0, 0, 0, 0, 0, 0, 1, 11, 33, 70, 124, 190, 260, 321, 363, 378, 364, 323, 264, 195, 127, 73, 35, 11, 0, 0, 0, 0, 0, 0, 0, 0, 0, 0, 0, 0, 0, 0, 0, 0, 0, 0, 0, 0, 0, 0, 0, 0, 0, 0, 0, 0, 0, 0, 0, 0, 0, 0, 0, 0, 0, 0, 0, 0, 0, 0, 0, 0, 0, 0, 0, 0, 0, 0, 0, 0, 0, 0, 1, 2, 2, 2, 2, 2, 1, 0, 0, 9, 40, 98, 188, 317, 474, 638, 788, 900, 954, 941, 861, 729, 565, 394, 244, 132, 56, 14, 0, 0, 0, 0, 0, 0, 0, 0, 0, 0, 0, 0, 0, 0, 0, 0, 0, 0, 0, 0, 0, 0, 0, 0, 0, 0, 0, 0, 0, 0, 0, 0, 0, 0, 0, 0, 0, 0, 0, 0, 0, 1, 15, 45, 90, 151, 226, 298, 358, 397, 407, 388, 343, 276, 200, 129, 73, 32, 8, 0, 0, 0, 0, 0, 0, 0, 0, 0, 0, 0, 0, 0, 0, 0, 0, 0, 0, 0, 0, 0, 0, 0, 0, 0, 0, 0, 0, 6, 16, 32, 51, 73, 90, 98, 97, 86, 68, 48, 30, 15, 6, 1, 0, 0, 0, 0, 0, 0, 0, 0, 2, 7, 16, 29, 45, 62, 76, 85, 86, 81, 70, 55, 40, 25, 14, 6, 2, 0, 0, 0, 0, 0, 0, 0, 2, 11, 28, 58, 103, 157, 215, 268, 306, 322, 312, 279, 228, 169, 109, 63, 30, 9, 0, 0, 0, 0, 0, 0, 0, 0, 0, 0, 0, 0, 0, 0, 0, 1, 4, 11, 23, 44, 74, 115, 165, 219, 268, 305, 320, 310, 275, 223, 169, 131, 126, 168, 261, 396, 554, 708, 828, 893, 887, 815, 689, 531, 366, 224, 119, 49, 11, 0, 0, 0, 1, 3, 5, 7, 9, 8, 6, 4, 2, 1, 0, 0, 6, 21, 44, 74, 111, 146, 173, 187, 186, 172, 147, 115, 79, 49, 26, 10, 1, 0, 0, 0, 0, 0, 0, 0, 0, 0, 0, 0, 0, 0, 0, 0, 0, 0, 0, 0, 0, 0, 0, 0, 0, 0, 0, 0, 0, 0, 0, 0, 0, 0, 0, 0, 0, 0, 0, 0, 0, 0, 0, 0, 0, 0, 0, 0, 0, 0, 0, 0, 0, 0, 0, 0, 0, 0, 0, 0, 0, 0, 0, 0, 0, 0, 0, 0, 0, 0, 0, 0, 0, 0, 0, 0, 0, 0, 0, 0, 0, 0, 0, 0, 0, 0, 0, 0, 0, 0, 0, 0, 0, 0, 0, 0, 0, 0, 0, 0, 0, 0, 0, 0, 0, 0, 0, 0, 0, 0, 0, 0, 0, 0, 0, 0, 0, 0, 0, 0, 0, 0, 0, 0, 0, 0, 0, 0, 0, 0, 0, 0, 0, 0, 0, 0, 0, 3, 19, 53, 111, 196, 306, 429, 550, 649, 710, 721, 681, 598, 489, 381, 296, 254, 260, 313, 394, 483, 557, 596, 589, 538, 453, 348, 240, 147, 79, 34, 9, 0, 1, 4, 7, 9, 12, 13, 12, 11, 9, 6, 5, 3, 1, 0, 0, 2, 16, 44, 89, 150, 227, 301, 363, 402, 411, 390, 350, 305, 272, 269, 306, 384, 493, 613, 717, 780, 785, 729, 621, 481, 335, 206, 110, 47, 12, 0, 0, 0, 0, 0, 0, 0, 0, 0, 0, 0, 0, 0, 0, 0, 0, 0, 0, 0, 0, 0, 0, 0, 0, 0, 1, 10, 31, 66, 119, 190, 272, 356, 431, 485, 508, 496, 449, 375, 287, 195, 119, 62, 25, 5, 0, 0, 0, 1, 1, 1, 1, 1, 0, 0, 0, 0, 0, 0, 0, 0, 0, 0, 0, 0, 0, 0, 0, 0, 0, 0, 0, 0, 0, 0, 0, 0, 0, 0, 0, 0, 0, 0, 0, 0, 0, 0, 0, 0, 0, 0, 0, 0, 0, 0, 0, 0, 0, 0, 0, 0, 0, 0, 0, 0, 0, 0, 0, 0, 0, 0, 0, 0, 0, 0, 0, 0, 0, 0, 0, 0, 0, 0, 0, 0, 0, 0, 0, 0, 0, 0, 0, 0, 0, 0, 0, 0, 0, 0, 0, 0, 0, 0, 0, 0, 0, 0, 0, 0, 0, 0, 0, 0, 0, 0, 0, 0, 0, 0, 0, 0, 0, 0, 0, 1, 6, 14, 25, 38, 51, 60, 63, 58, 48, 34, 21, 11, 3, 0, 0, 0, 0, 0, 0, 0, 0, 0, 0, 0, 0, 0, 0, 0, 0, 0, 0, 0, 0, 0, 0, 20, 65, 139, 242, 371, 499, 607, 674, 690, 653, 570, 457, 330, 211, 119, 54, 16, 0, 0, 0, 0, 1, 2, 5, 11, 20, 32, 45, 59, 70, 75, 74, 67, 54, 40, 26, 15, 7, 2, 0, 0, 0, 0, 0, 0, 0, 0, 0, 0, 0, 0, 0, 1, 1, 1, 1, 1, 0, 0, 0, 1, 2, 4, 4, 4, 4, 3, 1, 0, 14, 59, 140, 264, 430, 619, 797, 934, 1003, 991, 901, 750, 567, 380, 227, 115, 43, 7, 0, 0, 0, 0, 0, 0, 5, 17, 35, 57, 82, 105, 120, 125, 121, 107, 86, 61, 39, 20, 7, 0, 0, 0, 0, 0, 0, 0, 0, 0, 0, 0, 0, 0, 0, 0, 0, 0, 0, 0, 0, 0, 0, 0, 0, 0, 0, 0, 0, 0, 0, 0, 0, 0, 0, 0, 0, 0, 0, 0, 0, 0, 0, 0, 0, 0, 0, 0, 0, 0, 0, 0, 0, 0, 4, 18, 43, 81, 133, 193, 251, 297, 321, 320, 292, 242, 181, 119, 69, 33, 11, 0, 0, 0, 0, 1, 1, 1, 1, 1, 0, 0, 0, 0, 0, 0, 0, 0, 0, 1, 9, 23, 46, 77, 114, 152, 184, 208, 218, 212, 193, 161, 122, 82, 49, 24, 8, 0, 0, 1, 3, 4, 7, 9, 9, 7, 6, 3, 1, 0, 0, 0, 0, 0, 0, 0, 0, 0, 0, 0, 0, 0, 0, 0, 0, 0, 0, 0, 0, 0, 0, 0, 0, 0, 0, 0, 0, 1, 21, 67, 146, 260, 411, 575, 727, 843, 900, 888, 810, 684, 537, 397, 292, 235, 230, 267, 330, 398, 449, 469, 451, 398, 320, 231, 147, 82, 37, 11, 0, 0, 1, 2, 3, 3, 4, 3, 2, 1, 0, 0, 0, 0, 0, 0, 0, 0, 0, 0, 0, 0, 0, 0, 0, 0, 0, 0, 0, 0, 0, 0, 0, 0, 0, 0, 0, 0, 0, 0, 0, 0, 0, 0, 0, 0, 0, 0, 0, 0, 0, 0, 0, 0, 0, 0, 0, 0, 0, 0, 0, 0, 0, 0, 3, 23, 65, 134, 228, 344, 461, 561, 626, 646, 619, 549, 450, 335, 222, 131, 65, 23, 2, 0, 0, 0, 0, 0, 0, 0, 1, 2, 4, 7, 9, 9, 8, 6, 3, 4, 15, 42, 86, 148, 226, 306, 378, 427, 446, 432, 388, 321, 245, 168, 102, 54, 23, 6, 0, 0, 0, 0, 0, 0, 0, 0, 0, 0, 0, 0, 0, 0, 0, 0, 0, 0, 0, 0, 0, 0, 0, 0, 0, 0, 0, 0, 0, 0, 0, 0, 0, 0, 0, 0, 0, 0, 0, 0, 0, 9, 36, 83, 152, 244, 345, 439, 509, 543, 535, 487, 411, 322, 242, 186, 169, 192, 248, 324, 401, 461, 492, 487, 448, 383, 305, 226, 158, 105, 70, 50, 40, 34, 29, 23, 16, 10, 4, 1, 0, 0, 0, 0, 0, 0, 0, 0, 0, 0, 0, 0, 0, 0, 1, 2, 2, 2, 1, 1, 3, 8, 17, 28, 41, 51, 57, 57, 53, 45, 35, 23, 14, 7, 2, 0, 0, 0, 0, 0, 0, 0, 0, 0, 0, 0, 0, 0, 0, 0, 0, 0, 0, 0, 0, 1, 3, 8, 16, 26, 38, 48, 54, 55, 49, 39, 27, 16, 7, 2, 0, 0, 0, 0, 0, 0, 0, 0, 4, 24, 63, 125, 213, 318, 426, 519, 581, 600, 573, 504, 406, 295, 189, 107, 49, 14, 0, 0, 0, 0, 0, 0, 0, 0, 0, 0, 0, 0, 0, 0, 0, 0, 0, 0, 0, 12, 42, 94, 168, 265, 369, 463, 531, 563, 552, 500, 416, 315, 212, 126, 64, 24, 3, 0, 0, 0, 0, 0, 0, 0, 0, 0, 0, 0, 0, 0, 0, 0, 0, 0, 0, 0, 0, 0, 0, 0, 0, 0, 0, 0, 0, 0, 0, 0, 0, 0, 0, 0, 0, 0, 0, 0, 0, 0, 0, 0, 0, 1, 1, 1, 1, 1, 0, 0, 5, 25, 66, 135, 237, 368, 513, 652, 763, 826, 827, 769, 663, 531, 399, 291, 223, 201, 223, 275, 340, 400, 438, 442, 412, 352, 274, 191, 117, 63, 26, 7, 0, 0, 1, 2, 3, 2, 3, 2, 1, 0, 0, 0, 0, 0, 0, 0, 0, 0, 0, 0, 0, 0, 0, 0, 0, 0, 0, 0, 0, 0, 0, 0, 0, 0, 0, 0, 0, 0, 0, 0, 0, 0, 0, 0, 0, 0, 0, 0, 0, 0, 0, 0, 0, 0, 0, 0, 0, 0, 0, 0, 0, 0, 0, 0, 0, 0, 0, 0, 0, 0, 0, 0, 0, 0, 0, 1, 8, 19, 35, 56, 78, 97, 110, 114, 111, 99, 82, 62, 41, 24, 12, 3, 0, 0, 0, 0, 0, 0, 0, 0, 2, 12, 28, 49, 74, 99, 117, 124, 121, 107, 87, 63, 40, 23, 11, 3, 0, 0, 0, 0, 0, 0, 0, 0, 0, 0, 0, 0, 0, 0, 0, 0, 0, 0, 3, 12, 28, 52, 84, 118, 150, 171, 179, 172, 153, 126, 96, 68, 47, 35, 32, 39, 53, 70, 86, 99, 105, 102, 91, 74, 53, 34, 19, 7, 1, 0, 0, 0, 0, 0, 0, 0, 0, 0, 1, 2, 4, 4, 4, 4, 2, 2, 16, 50, 108, 193, 306, 431, 553, 653, 716, 729, 692, 611, 503, 387, 288, 219, 192, 205, 247, 300, 347, 374, 372, 340, 287, 221, 153, 94, 51, 21, 5, 0, 0, 0, 0, 0, 1, 1, 1, 1, 1, 0, 0, 0, 0, 0, 0, 0, 0, 0, 0, 0, 0, 0, 0, 0, 0, 0, 0, 0, 0, 0, 0, 0, 0, 0, 0, 0, 0, 0, 1, 1, 1, 1, 0, 0, 0, 0, 0, 0, 0, 0, 0, 0, 0, 0, 0, 0, 0, 0, 0, 0, 0, 0, 0, 0, 0, 0, 0, 0, 0, 0, 0, 0, 0, 0, 0, 0, 0, 0, 0, 0, 0, 0, 0, 0, 0, 0, 0, 0, 0, 0, 0, 0, 0, 1, 4, 6, 7, 7, 6, 4, 3, 14, 40, 85, 154, 247, 355, 466, 564, 631, 656, 631, 562, 459, 341, 225, 132, 66, 24, 3, 0, 0, 0, 0, 0, 0, 0, 0, 0, 0, 0, 0, 0, 0, 0, 0, 0, 0, 0, 0, 0, 0, 0, 1, 2, 3, 4, 6, 12, 25, 49, 86, 136, 197, 262, 324, 372, 398, 397, 369, 318, 253, 183, 118, 67, 33, 11, 1, 0, 0, 0, 0, 0, 0, 0, 0, 0, 0, 0, 0, 0, 0, 0, 0, 0, 0, 0, 0, 0, 0, 0, 0, 0, 0, 0, 0, 0, 0, 0, 0, 0, 0, 0, 0, 0, 0, 0, 0, 0, 0, 0, 0, 0, 0, 0, 0, 0, 0, 0, 0, 0, 0, 0, 0, 0, 0, 0, 0, 0, 0, 0, 0, 0, 0, 0, 0, 0, 0, 0, 0, 0, 0, 1, 8, 21, 43, 76, 120, 168, 219, 262, 291, 299, 285, 251, 201, 144, 92, 51, 22, 6, 0, 0, 0, 0, 0, 0, 0, 0, 0, 0, 0, 0, 0, 0, 0, 0, 0, 0, 2, 11, 25, 44, 66, 86, 99, 103, 97, 82, 63, 43, 25, 13, 5, 1, 0, 0, 0, 0, 0, 0, 0, 0, 0, 0, 0, 0, 0, 0, 0, 0, 0, 0, 0, 1, 5, 11, 19, 30, 41, 50, 55, 56, 51, 42, 32, 28, 37, 68, 124, 208, 313, 429, 538, 625, 673, 675, 629, 545, 438, 329, 237, 176, 155, 173, 221, 284, 346, 392, 412, 400, 360, 299, 229, 159, 99, 54, 25, 8, 1, 0, 0, 0, 4, 17, 41, 78, 133, 200, 274, 348, 411, 452, 465, 446, 398, 330, 251, 174, 106, 57, 25, 7, 0, 0, 0, 0, 0, 5, 21, 52, 102, 175, 268, 374, 480, 572, 635, 655, 627, 555, 452, 334, 221, 128, 64, 25, 5, 0, 0, 0, 0, 1, 3, 4, 5, 6, 4, 3, 2, 0, 0, 0, 4, 14, 32, 63, 111, 174, 248, 326, 396, 449, 476, 473, 440, 382, 307, 225, 146, 85, 41, 13, 0, 0, 0, 2, 3, 4, 3, 3, 2, 1, 0, 0, 0, 0, 0, 0, 0, 0, 0, 0, 0, 0, 0, 0, 0, 0, 0, 0, 0, 0, 0, 0, 0, 0, 0, 0, 0, 0, 0, 0, 0, 0, 0, 0, 0, 0, 0, 0, 0, 0, 0, 0, 0, 0, 0, 0, 0, 0, 0, 0, 0, 0, 0, 0, 0, 4, 12, 23, 37, 53, 66, 76, 81, 81, 75, 65, 53, 42, 36, 40, 56, 86, 126, 170, 212, 245, 262, 260, 239, 203, 157, 108, 66, 35, 14, 3, 0, 0, 0, 0, 1, 4, 14, 37, 80, 149, 245, 362, 486, 602, 689, 734, 728, 674, 582, 470, 359, 268, 210, 192, 209, 249, 298, 339, 362, 360, 332, 283, 221, 155, 96, 52, 22, 5, 0, 0, 0, 0, 0, 0, 0, 0, 0, 0, 0, 0, 0, 0, 0, 0, 2, 8, 21, 44, 78, 123, 175, 228, 273, 303, 309, 292, 255, 203, 146, 93, 53, 24, 7, 0, 0, 0, 0, 0, 0, 0, 0, 0, 0, 0, 0, 0, 0, 0, 0, 0, 0, 0, 0, 0, 0, 0, 0, 0, 0, 0, 0, 0, 0, 0, 0, 0, 0, 0, 0, 0, 0, 0, 0, 0, 0, 0, 0, 0, 0, 0, 0, 0, 0, 0, 0, 0, 0, 0, 0, 0, 0, 0, 0, 0, 0, 0, 0, 0, 0, 0, 0, 0, 0, 0, 0, 0, 0, 0, 0, 0, 0, 0, 0, 0, 0, 0, 0, 0, 0, 0, 0, 0, 0, 0, 0, 0, 0, 0, 0, 0, 0, 0, 0, 0, 0, 0, 3, 8, 16, 24, 34, 41, 44, 43, 36, 27, 18, 9, 3, 0, 0, 0, 0, 0, 0, 0, 0, 0, 0, 0, 0, 0, 0, 0, 0, 0, 0, 0, 0, 0, 0, 0, 0, 0, 0, 0, 0, 0, 0, 0, 0, 0, 0, 0, 0, 0, 0, 0, 0, 0, 0, 0, 0, 0, 0, 0, 0, 0, 0, 0, 0, 0, 0, 0, 0, 0, 0, 0, 0, 0, 0, 2, 5, 7, 7, 7, 6, 8, 20, 51, 106, 189, 297, 423, 553, 669, 754, 796, 788, 731, 637, 523, 410, 316, 255, 234, 251, 294, 350, 402, 434, 438, 411, 359, 291, 220, 157, 109, 80, 68, 70, 79, 87, 90, 87, 81, 78, 86, 112, 161, 230, 313, 397, 472, 524, 543, 528, 482, 411, 327, 241, 164, 100, 55, 26, 11, 5, 6, 9, 13, 21, 33, 53, 83, 125, 177, 235, 293, 341, 371, 377, 356, 309, 248, 181, 119, 68, 34, 13, 4, 3, 4, 6, 7, 6, 4, 3, 1, 0, 0, 0, 0, 0, 0, 0, 0, 0, 0, 0, 0, 0, 0, 0, 0, 0, 0, 0, 0, 0, 0, 0, 0, 0, 0, 0, 0, 0, 0, 0, 0, 0, 0, 0, 0, 0, 0, 0, 0, 0, 0, 0, 0, 3, 10, 23, 42, 69, 101, 136, 170, 198, 216, 221, 211, 188, 155, 117, 79, 47, 24, 9, 1, 0, 0, 0, 1, 4, 8, 15, 24, 34, 43, 51, 55, 56, 52, 45, 35, 23, 14, 7, 2, 0, 0, 1, 1, 1, 1, 0, 0, 0, 11, 37, 82, 148, 238, 343, 452, 554, 636, 685, 694, 661, 591, 493, 381, 270, 170, 96, 45, 15, 1, 0, 0, 0, 0, 0, 0, 0, 0, 0, 0, 0, 0, 0, 0, 0, 1, 4, 9, 14, 22, 29, 35, 38, 38, 35, 30, 22, 15, 8, 4, 0, 0, 0, 0, 0, 0, 0, 0, 0, 0, 0, 0, 0, 0, 0, 0, 0, 0, 0, 0, 0, 0, 0, 0, 0, 0, 0, 0, 0, 0, 0, 0, 0, 0, 0, 0, 0, 0, 0, 0, 0, 0, 0, 0, 0, 0, 0, 0, 0, 0, 1, 3, 4, 6, 7, 6, 5, 6, 14, 33, 67, 120, 192, 281, 379, 475, 556, 609, 625, 601, 542, 460, 370, 289, 228, 197, 195, 217, 253, 293, 322, 335, 327, 302, 264, 219, 175, 135, 99, 70, 46, 27, 15, 10, 11, 19, 33, 49, 67, 83, 94, 99, 99, 91, 78, 61, 43, 27, 14, 5, 1, 0, 0, 0, 0, 0, 0, 0, 0, 0, 0, 0, 0, 0, 0, 0, 0, 0, 0, 0, 0, 0, 0, 0, 0, 0, 0, 0, 0, 0, 0, 0, 0, 0, 0, 0, 0, 0, 0, 0, 0, 0, 0, 0, 0, 0, 0, 0, 0, 0, 0, 0, 0, 0, 0, 0, 0, 4, 12, 23, 36, 51, 66, 76, 83, 84, 80, 72, 62, 51, 42, 37, 39, 44, 52, 60, 66, 68, 65, 58, 49, 38, 26, 17, 9, 4, 0, 0, 0, 0, 0, 0, 0, 0, 0, 0, 0, 0, 0, 0, 0, 0, 0, 0, 0, 0, 0, 0, 0, 0, 0, 0, 0, 0, 0, 0, 0, 0, 0, 0, 0, 0, 0, 0, 0, 0, 0, 0, 0, 2, 6, 12, 21, 32, 44, 54, 63, 68, 69, 65, 56, 44, 30, 18, 9, 3, 0, 0, 0, 0, 0, 0, 0, 0, 0, 0, 0, 0, 0, 0, 0, 0, 0, 0, 0, 0, 0, 0, 0, 0, 0, 0, 0, 0, 0, 0, 0, 0, 0, 0, 0, 0, 0, 0, 0, 0, 0, 0, 0, 0, 0, 0, 0, 0, 0, 0, 0, 0, 0, 0, 0, 0, 0, 0, 0, 0, 0, 0, 0, 0, 0, 0, 0, 0, 0, 0, 0, 0, 0, 0, 0, 0, 0, 0, 0, 0, 0, 0, 0, 0, 0, 0, 0, 0, 0, 0, 2, 6, 14, 27, 49, 81, 123, 173, 228, 278, 318, 340, 341, 320, 282, 232, 177, 124, 78, 43, 20, 6, 0, 0, 1, 3, 4, 5, 6, 5, 3, 2, 0, 0, 0, 0, 0, 0, 0, 0, 0, 0, 0, 0, 0, 0, 0, 1, 1, 1, 1, 1, 0, 0, 0, 0, 0, 0, 0, 0, 0, 0, 0, 0, 0, 0, 0, 0, 0, 0, 1, 1, 1, 3, 8, 16, 30, 49, 74, 101, 128, 150, 162, 164, 154, 136, 115, 95, 78, 66, 58, 53, 49, 46, 41, 36, 31, 27, 22, 18, 14, 10, 6, 3, 1, 0, 0, 0, 0, 2, 5, 12, 21, 34, 49, 65, 78, 87, 91, 89, 82, 72, 60, 47, 33, 21, 12, 5, 1, 0, 0, 0, 0, 0, 0, 0, 0, 0, 0, 0, 0, 0, 0, 0, 0, 0, 0, 0, 0, 0, 0, 0, 0, 0, 0, 0, 0, 0, 0, 0, 0, 0, 0, 0, 0, 0, 0, 0, 0, 0, 2, 9, 26, 53, 92, 142, 195, 247, 289, 316, 324, 315, 289, 253, 213, 174, 142, 118, 102, 92, 87, 83, 80, 75, 68, 58, 46, 32, 20, 10, 4, 0, 0, 0, 0, 0, 0, 0, 0, 0, 0, 0, 0, 0, 0, 0, 0, 0, 1, 2, 6, 12, 18, 26, 32, 37, 40, 41, 40, 37, 33, 27, 20, 13, 8, 4, 1, 0, 0, 0, 0, 0, 0, 0, 0, 0, 0, 0, 0, 0, 0, 0, 0, 0, 0, 0, 0, 0, 0, 0, 0, 0, 0, 0, 0, 0, 0, 0, 0, 0, 0, 0, 0, 0, 0, 0, 0, 0, 0, 0, 0, 0, 0, 0, 0, 0, 0, 0, 0, 0, 0, 0, 0, 0, 1, 3, 4, 5, 6, 6, 7, 8, 11, 18, 31, 50, 80, 120, 170, 225, 280, 326, 356, 365, 352, 320, 275, 225, 176, 133, 99, 76, 62, 53, 48, 43, 38, 33, 29, 27, 29, 36, 50, 69, 94, 122, 150, 175, 191, 197, 192, 174, 147, 115, 82, 53, 30, 15, 5, 1, 0, 0, 0, 0, 0, 0, 0, 0, 0, 0, 0, 0, 0, 0, 0, 0, 0, 0, 0, 0, 0, 0, 0, 0, 0, 0, 0, 0, 4, 11, 22, 36, 52, 67, 77, 81, 79, 71, 60, 47, 33, 21, 12, 6, 2, 0, 0, 0, 0, 0, 0, 0, 3, 7, 13, 23, 36, 49, 62, 72, 77, 76, 69, 58, 45, 32, 20, 11, 5, 1, 0, 0, 0, 0, 0, 0, 0, 0, 0, 0, 0, 0, 0, 0, 0, 0, 0, 0, 0, 0, 0, 0, 0, 0, 0, 0, 0, 0, 0, 0, 0, 0, 0, 0, 0, 0, 0, 0, 0, 0, 0, 0, 0, 0, 0, 0, 0, 0, 0, 0, 0, 0, 0, 0, 0, 0, 0, 0, 0, 0, 0, 0, 0, 0, 0, 0, 0, 0, 0, 0, 0, 0, 0, 0, 0, 0, 0, 0, 0, 0, 0, 0, 0, 0, 0, 0, 0, 0, 0, 0, 0, 0, 0, 0, 0, 0, 0, 0, 0, 0, 0, 0, 0, 0, 0, 0, 0, 0, 0, 0, 0, 0, 0, 0, 0, 0, 0, 0, 0, 0, 0, 0, 0, 1, 3, 5, 9, 14, 20, 26, 30, 34, 35, 34, 30, 27, 24, 26, 34, 48, 68, 95, 124, 152, 174, 185, 184, 171, 147, 116, 85, 54, 31, 15, 5, 0, 0, 0, 0, 0, 0, 0, 0, 0, 0, 0, 0, 0, 0, 0, 0, 0, 0, 0, 0, 0, 0, 0, 0, 0, 0, 0, 0, 0, 0, 0, 0, 0, 0, 0, 0, 0, 0, 0, 0, 0, 0, 0, 4, 12, 28, 52, 84, 122, 165, 207, 246, 276, 294, 296, 281, 252, 214, 171, 132, 98, 72, 51, 36, 23, 14, 7, 3, 0, 0, 0, 0, 0, 0, 0, 0, 0, 0, 0, 2, 7, 15, 28, 48, 72, 100, 129, 155, 173, 182, 179, 164, 141, 113, 84, 57, 34, 19, 9, 3, 0, 0, 0, 0, 0, 1, 2, 2, 2, 2, 1, 0, 0, 0, 0, 0, 0, 0, 0, 0, 0, 0, 0, 0, 0, 0, 0, 0, 0, 0, 0, 0, 0, 0, 0, 0, 0, 0, 0, 0, 1, 1, 2, 2, 1, 1, 0, 0, 0, 0, 0, 4, 10, 21, 37, 60, 86, 115, 141, 164, 177, 183, 178, 165, 146, 124, 101, 80, 62, 46, 34, 22, 14, 7, 3, 0, 0, 0, 0, 0, 0, 0, 0, 0, 0, 1, 4, 8, 14, 23, 33, 42, 50, 55, 57, 55, 52, 48, 46, 48, 60, 82, 119, 170, 233, 300, 363, 414, 446, 453, 434, 393, 336, 269, 201, 137, 84, 46, 21, 6, 0, 0, 0, 1, 3, 6, 11, 18, 25, 32, 38, 40, 39, 34, 25, 17, 9, 3, 0, 0, 0, 0, 0, 0, 0, 0, 0, 4, 12, 22, 36, 51, 66, 77, 84, 86, 82, 73, 59, 43, 27, 15, 6, 1, 0, 0, 0, 0, 0, 0, 0, 3, 8, 17, 27, 38, 47, 54, 57, 57, 54, 48, 39, 28, 18, 10, 3, 0, 0, 0, 0, 0, 0, 0, 0, 0, 0, 0, 0, 0, 0, 0, 0, 0, 0, 0, 0, 0, 0, 0, 0, 0, 1, 2, 3, 4, 5, 4, 3, 2, 0, 0, 0, 0, 0, 0, 0, 0, 0, 0, 0, 0, 0, 0, 0, 0, 0, 0, 0, 0, 0, 0, 0, 0, 0, 0, 0, 0, 0, 0, 0, 0, 0, 0, 0, 0, 0, 0, 0, 0, 0, 0, 0, 0, 0, 0, 0, 0, 0, 0, 0, 0, 0, 0, 0, 0, 0, 0, 0, 0, 0, 0, 0, 0, 0, 0, 0, 0, 0, 0, 0, 0, 0, 0, 0, 0, 0, 0, 0, 0, 0, 0, 0, 0, 0, 0, 0, 0, 0, 0, 0, 0, 0, 0, 1, 1, 1, 1, 0, 0, 0, 0, 0, 0, 0, 0, 1, 3, 4, 8, 10, 11, 10, 10, 8, 8, 10, 19, 34, 55, 85, 123, 170, 224, 283, 344, 399, 441, 464, 464, 442, 403, 356, 310, 275, 255, 252, 263, 281, 301, 315, 319, 312, 295, 274, 251, 234, 226, 230, 244, 266, 291, 312, 325, 325, 309, 278, 237, 189, 140, 95, 59, 32, 15, 6, 1, 0, 0, 0, 0, 0, 0, 0, 0, 0, 0, 0, 0, 0, 0, 0, 0, 0, 0, 0, 0, 0, 0, 0, 1, 5, 12, 20, 30, 38, 42, 43, 41, 36, 30, 26, 23, 23, 24, 27, 32, 38, 45, 52, 57, 59, 57, 51, 42, 31, 20, 12, 6, 2, 0, 0, 0, 0, 0, 0, 0, 0, 0, 0, 0, 0, 0, 0, 0, 0, 0, 0, 0, 0, 0, 0, 0, 0, 0, 0, 0, 0, 0, 0, 0, 0, 0, 0, 0, 0, 0, 0, 0, 0, 0, 0, 0, 0, 0, 0, 0, 0, 0, 0, 0, 0, 0, 0, 0, 0, 0, 0, 0, 0, 0, 0, 0, 0, 0, 0, 0, 0, 0, 0, 0, 0, 0, 0, 0, 0, 0, 0, 0, 0, 0, 0, 0, 0, 0, 0, 0, 0, 0, 0, 0, 0, 0, 0, 0, 0, 0, 0, 0, 0, 0, 0, 2, 6, 14, 26, 41, 59, 78, 95, 111, 123, 129, 129, 123, 111, 93, 72, 50, 31, 16, 7, 1, 0, 0, 0, 0, 0, 0, 0, 0, 0, 0, 0, 0, 0, 1, 3, 7, 14, 23, 34, 48, 61, 73, 81, 83, 78, 67, 52, 36, 22, 12, 5, 1, 0, 0, 0, 0, 0, 0, 0, 0, 0, 0, 0, 0, 0, 0, 0, 0, 0, 0, 0, 0, 3, 7, 10, 14, 17, 19, 18, 18, 18, 17, 16, 14, 12, 10, 10, 11, 14, 17, 19, 20, 20, 19, 21, 25, 31, 40, 51, 63, 75, 88, 99, 108, 115, 116, 112, 103, 90, 74, 58, 40, 26, 14, 6, 1, 0, 0, 1, 3, 6, 8, 9, 8, 6, 4, 1, 0, 0, 0, 0, 0, 0, 0, 0, 0, 0, 0, 0, 0, 0, 0, 0, 0, 2, 3, 3, 3, 3, 2, 0, 0, 0, 1, 4, 8, 15, 26, 42, 62, 87, 114, 141, 164, 181, 189, 187, 179, 164, 147, 129, 113, 98, 85, 74, 64, 56, 51, 52, 58, 74, 101, 138, 186, 240, 297, 351, 395, 424, 432, 420, 388, 342, 292, 246, 212, 191, 185, 187, 195, 200, 203, 200, 192, 178, 159, 135, 108, 79, 51, 30, 14, 4, 0, 0, 0, 0, 0, 0, 0, 0, 0, 0, 0, 0, 0, 0, 0, 0, 0, 0, 0, 0, 0, 0, 0, 0, 0, 0, 0, 0, 0, 0, 0, 0, 0, 0, 0, 0, 0, 0, 0, 0, 0, 0, 0, 0, 1, 3, 6, 9, 15, 22, 32, 47, 66, 90, 119, 150, 182, 210, 231, 240, 236, 219, 192, 161, 129, 100, 75, 56, 40, 28, 20, 17, 20, 29, 48, 76, 115, 162, 214, 269, 321, 365, 398, 417, 417, 402, 369, 323, 266, 205, 145, 92, 52, 25, 8, 0, 0, 0, 0, 0, 0, 0, 0, 0, 0, 0, 0, 0, 0, 0, 0, 0, 0, 0, 0, 0, 0, 0, 0, 0, 0, 2, 5, 9, 13, 17, 20, 22, 24, 24, 23, 20, 15, 10, 6, 2, 0, 0, 0, 0, 0, 0, 0, 0, 0, 0, 0, 0, 0, 0, 0, 0, 0, 0, 1, 3, 4, 7, 11, 13, 16, 19, 21, 23, 25, 25, 25, 23, 19, 14, 9, 5, 2, 0, 0, 0, 0, 0, 0, 0, 0, 0, 0, 0, 0, 0, 0, 0, 0, 0, 0, 0, 0, 0, 0, 0, 0, 0, 0, 0, 0, 0, 0, 0, 0, 0, 0, 0, 0, 0, 0, 0, 0, 0, 0, 0, 0, 0, 0, 0, 0, 0, 0, 0, 0, 0, 0, 0, 0, 0, 0, 0, 0, 0, 0, 1, 2, 4, 7, 10, 14, 21, 29, 40, 54, 70, 85, 100, 112, 120, 122, 120, 113, 101, 85, 67, 48, 30, 16, 7, 2, 0, 1, 3, 7, 11, 15, 19, 21, 22, 21, 20, 17, 13, 9, 6, 3, 1, 0, 0, 0, 0, 0, 0, 0, 0, 0, 0, 0, 0, 0, 0, 0, 0, 0, 0, 0, 0, 0, 0, 0, 0, 0, 0, 0, 0, 0, 0, 0, 0, 0, 0, 0, 0, 2, 5, 8, 12, 15, 16, 13, 10, 6, 3, 0, 0, 0, 0, 0, 1, 2, 5, 9, 16, 24, 37, 57, 85, 120, 164, 211, 258, 301, 335, 353, 354, 337, 305, 262, 216, 170, 131, 96, 70, 47, 31, 19, 13, 11, 15, 24, 37, 57, 83, 115, 151, 188, 223, 249, 264, 268, 261, 244, 221, 196, 169, 144, 119, 97, 76, 57, 41, 30, 20, 13, 8, 5, 2, 0, 0, 0, 0, 0, 0, 2, 6, 11, 17, 25, 30, 36, 38, 38, 34, 27, 19, 11, 5, 1, 0, 0, 0, 0, 0, 0, 0, 0, 0, 0, 0, 0, 0, 0, 0, 0, 0, 0, 0, 0, 0, 0, 0, 0, 0, 0, 0, 0, 0, 0, 0, 0, 0, 0, 0, 3, 7, 13, 19, 26, 30, 32, 32, 31, 29, 27, 25, 25, 27, 34, 44, 58, 73, 88, 101, 110, 113, 113, 107, 100, 90, 81, 75, 71, 70, 68, 66, 63, 58, 52, 48, 47, 50, 58, 72, 88, 106, 123, 136, 143, 144, 136, 122, 101, 78, 55, 35, 19, 9, 3, 1, 0, 0, 0, 0, 0, 0, 0, 0, 0, 0, 0, 0, 0, 0, 0, 0, 0, 0, 0, 0, 0, 0, 0, 0, 0, 1, 3, 7, 11, 17, 23, 29, 33, 36, 36, 34, 32, 29, 28, 29, 32, 38, 45, 54, 64, 75, 85, 97, 107, 119, 132, 147, 166, 190, 217, 247, 279, 310, 338, 360, 374, 375, 362, 334, 293, 244, 191, 140, 95, 60, 34, 17, 7, 2, 0, 0, 0, 0, 0, 0, 0, 0, 0, 0, 0, 0, 1, 3, 6, 10, 14, 17, 20, 21, 21, 21, 20, 21, 24, 29, 37, 45, 53, 58, 60, 58, 55, 49, 44, 38, 33, 27, 21, 16, 13, 11, 11, 12, 14, 18, 23, 35, 54, 81, 117, 157, 199, 237, 267, 286, 294, 291, 279, 258, 230, 197, 162, 126, 94, 65, 40, 23, 11, 3, 0, 0, 0, 0, 0, 0, 0, 0, 0, 1, 2, 3, 4, 7, 11, 18, 29, 44, 62, 81, 101, 118, 132, 140, 140, 133, 119, 99, 79, 60, 43, 27, 16, 8, 3, 0, 0, 0, 0, 0, 0, 0, 0, 0, 0, 0, 0, 0, 1, 5, 9, 15, 22, 28, 31, 33, 31, 28, 22, 15, 9, 5, 1, 0, 0, 0, 0, 0, 0, 0, 0, 0, 0, 0, 0, 0, 0, 0, 0, 0, 0, 0, 0, 0, 0, 4, 10, 20, 32, 48, 64, 77, 88, 94, 95, 90, 82, 69, 54, 39, 25, 14, 6, 1, 0, 0, 0, 0, 0, 0, 0, 0, 0, 0, 0, 0, 0, 0, 2, 6, 12, 23, 39, 61, 91, 125, 164, 203, 237, 262, 277, 280, 271, 254, 229, 198, 163, 125, 86, 54, 29, 12, 2, 0, 0, 0, 0, 0, 0, 0, 0, 0, 0, 0, 0, 0, 0, 1, 3, 5, 7, 8, 8, 6, 4, 2, 1, 0, 0, 0, 0, 0, 0, 0, 0, 0, 0, 0, 1, 4, 11, 20, 32, 45, 59, 70, 79, 82, 81, 75, 66, 53, 42, 30, 20, 12, 7, 3, 2, 1, 2, 2, 2, 2, 2, 1, 0, 0, 0, 0, 0, 0, 0, 0, 0, 0, 0, 0, 0, 0, 0, 0, 0, 0, 0, 0, 0, 0, 0, 0, 0, 0, 0, 0, 0, 0, 0, 0, 0, 0, 0, 0, 0, 0, 0, 0, 0, 0, 0, 0, 0, 0, 0, 0, 0, 0, 0, 0, 0, 0, 0, 0, 0, 0, 0, 0, 0, 0, 0, 0, 0, 0, 0, 0, 0, 0, 0, 0, 0, 0, 0, 0, 0, 0, 0, 0, 0, 0, 0, 0, 0, 0, 0, 0, 0, 0, 0, 0, 0, 0, 0, 0, 0, 0, 0, 0, 0, 0, 0, 0, 0, 0, 0, 0, 0, 0, 0, 0, 0, 0, 0, 1, 4, 8, 12, 17, 20, 22, 24, 24, 24, 23, 23, 20, 17, 14, 11, 7, 4, 3, 1, 0, 1, 5, 13, 22, 36, 54, 76, 102, 130, 160, 189, 213, 229, 240, 242, 239, 230, 218, 205, 192, 183, 180, 185, 194, 207, 216, 219, 213, 198, 176, 149, 122, 96, 74, 55, 40, 27, 17, 9, 5, 2, 0, 0, 0, 0, 0, 0, 0, 0, 0, 0, 0, 0, 0, 0, 1, 2, 3, 5, 5, 4, 5, 8, 15, 28, 46, 66, 87, 109, 131, 152, 173, 192, 208, 217, 217, 209, 195, 175, 154, 134, 117, 101, 87, 76, 65, 57, 51, 46, 43, 43, 45, 47, 50, 51, 49, 45, 39, 31, 23, 17, 11, 8, 6, 6, 6, 7, 6, 5, 4, 2, 1, 0, 0, 0, 0, 2, 4, 6, 9, 12, 15, 21, 31, 48, 70, 97, 129, 163, 196, 227, 251, 267, 272, 264, 247, 222, 194, 166, 141, 118, 98, 80, 63, 47, 32, 20, 11, 6, 2, 0, 0, 0, 0, 0, 0, 0, 1, 3, 6, 10, 17, 24, 31, 40, 49, 57, 64, 69, 71, 69, 64, 55, 43, 30, 18, 10, 3, 0, 0, 0, 0, 0, 0, 0, 0, 0, 0, 0, 0, 0, 0, 0, 0, 3, 9, 17, 24, 32, 35, 35, 31, 27, 22, 17, 11, 8, 4, 1, 0, 0, 0, 0, 0, 0, 0, 0, 0, 0, 0, 0, 0, 0, 0, 0, 0, 0, 0, 0, 0, 0, 0, 0, 0, 0, 0, 0, 0, 0, 0, 0, 0, 0, 0, 0, 0, 0, 0, 0, 0, 0, 0, 1, 4, 9, 17, 26, 38, 49, 60, 69, 78, 83, 86, 85, 80, 73, 63, 53, 43, 33, 24, 17, 11, 8, 8, 10, 14, 20, 28, 38, 48, 61, 75, 88, 99, 108, 114, 115, 112, 105, 93, 79, 64, 48, 34, 23, 14, 8, 4, 1, 0, 0, 0, 0, 0, 0, 0, 0, 0, 0, 0, 0, 0, 0, 0, 0, 0, 0, 0, 0, 0, 1, 2, 4, 6, 8, 8, 9, 8, 8, 8, 7, 7, 7, 5, 3, 2, 1, 0, 0, 0, 0, 0, 1, 2, 4, 7, 9, 11, 13, 15, 18, 21, 24, 26, 27, 26, 23, 19, 13, 8, 4, 1, 0, 0, 0, 0, 0, 0, 0, 0, 0, 0, 0, 0, 0, 0, 0, 0, 0, 0, 0, 0, 0, 0, 0, 0, 0, 0, 0, 0, 0, 0, 0, 0, 0, 0, 0, 0, 0, 0, 0, 0, 0, 0, 0, 0, 0, 0, 0, 0, 0, 0, 0, 0, 0, 0, 0, 0, 0, 0, 0, 0, 0, 0, 1, 2, 4, 5, 8, 11, 16, 24, 35, 47, 59, 72, 83, 91, 98, 102, 101, 98, 91, 81, 69, 58, 47, 36, 27, 17, 10, 5, 1, 0, 0, 0, 0, 0, 0, 0, 0, 0, 0, 0, 0, 0, 0, 0, 0, 0, 0, 0, 0, 0, 0, 0, 0, 0, 0, 0, 0, 0, 0, 0, 0, 0, 0, 0, 0, 0, 0, 0, 0, 0, 0, 0, 1, 3, 7, 11, 17, 21, 25, 28, 30, 30, 31, 31, 31, 31, 31, 33, 34, 37, 42, 50, 60, 74, 92, 110, 128, 143, 154, 159, 156, 147, 134, 117, 99, 81, 65, 50, 36, 23, 14, 7, 2, 0, 0, 0, 0, 0, 0, 0, 0, 0, 0, 0, 0, 0, 0, 0, 0, 0, 0, 0, 0, 0, 0, 0, 1, 2, 5, 10, 18, 30, 44, 60, 74, 86, 94, 96, 93, 86, 78, 68, 59, 50, 41, 31, 23, 16, 9, 4, 2, 0, 0, 0, 0, 0, 0, 0, 0, 0, 0, 0, 0, 0, 0, 0, 0, 0, 0, 0, 0, 0, 0, 0, 0, 0, 0, 0, 0, 0, 0, 0, 0, 0, 1, 3, 6, 10, 14, 17, 19, 19, 19, 21, 25, 32, 41, 54, 71, 91, 114, 139, 165, 191, 216, 239, 258, 273, 280, 278, 267, 246, 216, 182, 146, 112, 82, 58, 39, 26, 16, 9, 5, 3, 1, 0, 0, 0, 0, 0, 0, 0, 0, 0, 0, 0, 0, 0, 0, 0, 0, 0, 0, 0, 0, 0, 0, 0, 0, 0, 0, 0, 0, 0, 0, 0, 0, 0, 0, 0, 0, 0, 0, 0, 0, 0, 0, 0, 0, 0, 0, 0, 0, 0, 0, 0, 0, 0, 0, 0, 0, 0, 0, 0, 0, 0, 0, 0, 0, 0, 0, 0, 0, 0, 0, 0, 0, 0, 0, 0, 0, 0, 0, 0, 0, 0, 0, 0, 0, 0, 0, 0, 0, 0, 0, 0, 0, 0, 0, 0, 0, 0, 0, 0, 0, 0, 0, 0, 0, 0, 0, 0, 0, 0, 0, 0, 0, 0, 0, 0, 0, 0, 0, 0, 0, 0, 0, 0, 0, 0, 0, 0, 0, 0, 0, 0, 0, 0, 0, 0, 0, 0, 0, 0, 0, 0, 0, 1, 3, 6, 9, 13, 15, 18, 22, 27, 35, 48, 64, 85, 110, 138, 167, 196, 220, 237, 247, 249, 245, 238, 231, 226, 226, 229, 234, 241, 247, 252, 254, 253, 247, 235, 217, 195, 170, 145, 123, 105, 90, 78, 70, 65, 64, 70, 81, 98, 119, 143, 170, 197, 222, 245, 263, 275, 281, 281, 278, 272, 262, 252, 242, 230, 221, 212, 206, 200, 193, 185, 175, 162, 147, 131, 114, 96, 79, 64, 51, 41, 34, 29, 25, 22, 19, 16, 11, 7, 4, 5, 8, 16, 24, 34, 40, 43, 42, 38, 31, 24, 18, 12, 7, 5, 3, 2, 3, 5, 7, 10, 14, 19, 25, 33, 41, 48, 55, 60, 66, 74, 86, 103, 122, 143, 163, 179, 191, 198, 203, 204, 205, 207, 210, 214, 220, 225, 229, 232, 232, 229, 222, 210, 192, 170, 145, 119, 95, 73, 54, 37, 24, 14, 7, 3, 1, 0, 0, 0, 0, 0, 0, 0, 0, 0, 0, 0, 0, 0, 0, 0, 0, 0, 0, 0, 0, 0, 0, 0, 0, 0, 0, 0, 0, 0, 0, 0, 0, 0, 0, 2, 6, 10, 14, 19, 22, 24, 26, 28, 30, 32, 34, 34, 35, 35, 34, 33, 32, 31, 28, 27, 25, 26, 30, 38, 50, 65, 80, 93, 104, 110, 111, 109, 104, 96, 87, 77, 66, 56, 46, 38, 33, 29, 29, 32, 39, 48, 60, 74, 90, 108, 130, 156, 183, 210, 232, 247, 253, 251, 242, 229, 215, 202, 190, 180, 174, 171, 169, 167, 164, 158, 148, 135, 120, 102, 82, 61, 41, 24, 12, 4, 0, 0, 0, 0, 0, 0, 0, 0, 0, 0, 0, 0, 0, 0, 0, 0, 0, 0, 0, 0, 0, 0, 0, 0, 1, 5, 13, 25, 42, 63, 86, 111, 134, 157, 178, 195, 207, 214, 214, 205, 189, 169, 147, 125, 104, 87, 73, 60, 50, 43, 39, 37, 36, 34, 32, 30, 27, 25, 23, 23, 23, 23, 22, 20, 18, 14, 9, 6, 3, 1, 0, 0, 0, 0, 0, 0, 0, 0, 0, 0, 0, 0, 0, 0, 0, 0, 0, 0, 0, 0, 0, 0, 0, 0, 0, 0, 0, 0, 0, 0, 0, 0, 0, 0, 0, 0, 0, 0, 0, 0, 0, 0, 0, 0, 0, 0, 0, 0, 0, 0, 0, 0, 0, 0, 0, 0, 0, 0, 0, 0, 0, 0, 0, 0, 0, 0, 0, 0, 0, 0, 0, 0, 0, 0, 0, 0, 0, 0, 0, 0, 0, 0, 0, 0, 0, 0, 0, 0, 0, 0, 0, 0, 0, 0, 0, 0, 0, 0, 0, 0, 0, 0, 0, 0, 0, 0, 0, 0, 0, 0, 0, 0, 0, 0, 0, 0, 0, 0, 0, 0, 0, 0, 0, 0, 0, 0, 0, 0, 0, 0, 0, 0, 0, 0, 0, 0, 0, 0, 0, 0, 0, 0, 0, 0, 0, 0, 0, 0, 0, 0, 0, 0, 0, 0, 0, 0, 0, 0, 0, 0, 0, 0, 0, 1, 2, 5, 8, 12, 15, 18, 21, 26, 31, 39, 49, 58, 66, 72, 74, 72, 70, 65, 61, 56, 51, 47, 42, 39, 38, 39, 42, 47, 52, 54, 53, 51, 47, 43, 40, 39, 37, 33, 28, 20, 13, 7, 2, 0, 0, 0, 0, 0, 0, 0, 0, 0, 0, 0, 0, 0, 0, 0, 0, 0, 0, 0, 0, 0, 0, 0, 0, 0, 0, 0, 0, 0, 0, 0, 0, 0, 0, 0, 0, 0, 0, 0, 0, 0, 0, 0, 0, 0, 0, 0, 0, 0, 0, 0, 0, 0, 2, 4, 7, 10, 13, 15, 14, 11, 8, 5, 2, 0, 0, 0, 0, 0, 0, 0, 0, 0, 0, 0, 0, 0, 0, 0, 0, 0, 0, 0, 0, 0, 0, 0, 0, 0, 0, 0, 0, 0, 0, 0, 0, 0, 0, 0, 0, 0, 1, 2, 2, 2, 2, 1, 1, 0, 0, 0, 0, 0, 0, 0, 0, 0, 0, 1, 2, 2, 3, 3, 2, 1, 1, 0, 0, 0, 2, 3, 5, 5, 5, 4, 2, 1, 0, 0, 0, 0, 0, 1, 2, 5, 8, 9, 9, 8, 5, 2, 1, 0, 0, 0, 0, 0, 0, 0, 0, 1, 2, 3, 4, 5, 4, 4, 2, 1, 0, 0, 0, 0, 0, 0, 0, 0, 0, 0, 0, 0, 0, 0, 0, 0, 0, 0, 0, 0, 0, 0, 0, 0, 0, 0, 0, 0, 0, 0, 0, 0, 0, 0, 0, 0, 0, 0, 0, 0, 0, 0, 0, 0, 0, 0, 0, 0, 0, 0, 0, 0, 0, 0, 0, 0, 0, 0, 0, 0, 0, 0, 0, 0, 0, 0, 0, 0, 0, 0, 0, 0, 0, 0, 1, 2, 4, 5, 6, 5, 4, 3, 3, 5, 11, 19, 30, 42, 54, 64, 73, 80, 87, 94, 102, 111, 119, 126, 132, 138, 144, 151, 159, 167, 172, 175, 174, 172, 168, 163, 160, 158, 156, 154, 153, 150, 145, 139, 133, 126, 119, 113, 108, 102, 96, 88, 78, 66, 53, 42, 33, 26, 22, 19, 17, 13, 9, 7, 6, 7, 10, 16, 23, 32, 41, 52, 64, 75, 86, 99, 113, 129, 149, 171, 193, 214, 230, 243, 249, 252, 250, 247, 243, 240, 239, 240, 243, 246, 248, 247, 243, 236, 229, 223, 220, 219, 220, 222, 226, 228, 229, 230, 229, 227, 223, 217, 210, 202, 194, 185, 177, 168, 160, 152, 143, 134, 125, 115, 104, 94, 84, 76, 68, 61, 52, 42, 29, 19, 9, 3, 2, 7, 15, 24, 33, 40, 43, 43, 41, 39, 37, 37, 38, 37, 35, 31, 28, 24, 21, 20, 21, 23, 24, 24, 23, 19, 14, 9, 5, 1, 0, 0, 0, 0, 0, 0, 0, 0, 0, 0, 0, 0, 0, 1, 2, 5, 7, 8, 8, 7, 5, 3, 1, 0, 0, 0, 0, 0, 0, 0, 0, 0, 0, 0, 0, 0, 0, 0, 0, 0, 0, 0, 0, 0, 0, 0, 0, 0, 0, 0, 2, 3, 5, 5, 5, 4, 2, 1, 0, 0, 0, 0, 0, 0, 0, 0, 0, 0, 0, 0, 0, 0, 2, 3, 5, 9, 12, 15, 18, 23, 28, 34, 41, 49, 57, 66, 74, 82, 89, 93, 93, 91, 86, 78, 71, 66, 60, 57, 52, 46, 38, 27, 18, 10, 4, 0, 0, 0, 0, 0, 0, 0, 0, 0, 0, 0, 0, 0, 0, 0, 0, 0, 0, 0, 0, 0, 0, 0, 0, 0, 0, 0, 2, 4, 8, 12, 17, 21, 25, 27, 28, 27, 25, 23, 22, 21, 23, 24, 26, 28, 29, 29, 29, 29, 27, 26, 23, 18, 13, 8, 5, 2, 1, 2, 4, 5, 5, 5, 4, 2, 1, 0, 0, 0, 0, 0, 0, 0, 0, 0, 0, 0, 0, 0, 0, 0, 0, 0, 0, 0, 0, 0, 0, 0, 0, 0, 0, 0, 0, 0, 0, 0, 0, 0, 0, 0, 0, 0, 0, 0, 0, 0, 0, 0, 0, 0, 1, 2, 3, 5, 6, 7, 7, 9, 11, 15, 21, 28, 36, 45, 57, 69, 85, 102, 121, 140, 157, 170, 176, 175, 168, 156, 142, 126, 110, 95, 79, 64, 49, 36, 25, 16, 9, 5, 2, 0, 0, 0, 0, 0, 0, 0, 0, 0, 0, 0, 0, 0, 0, 0, 0, 0, 0, 0, 0, 0, 2, 4, 7, 9, 12, 15, 19, 25, 33, 45, 59, 75, 91, 106, 118, 126, 128, 124, 112, 97, 78, 59, 40, 24, 13, 6, 2, 0, 0, 0, 0, 0, 0, 0, 0, 0, 0, 0, 0, 0, 0, 0, 0, 0, 0, 0, 0, 0, 0, 0, 0, 0, 0, 0, 0, 0, 0, 0, 0, 0, 0, 0, 0, 0, 0, 0, 0, 0, 0, 1, 2, 4, 5, 7, 8, 8, 10, 13, 19, 29, 41, 55, 69, 82, 95, 106, 116, 126, 138, 151, 166, 180, 193, 204, 209, 209, 205, 198, 188, 180, 169, 159, 148, 138, 127, 117, 109, 102, 95, 89, 83, 77, 72, 68, 63, 58, 52, 45, 38, 32, 28, 25, 25, 26, 28, 30, 33, 35, 37, 38, 39, 37, 35, 33, 30, 26, 24, 23, 24, 24, 25, 24, 23, 20, 18, 16, 16, 18, 21, 26, 32, 38, 44, 51, 56, 61, 63, 64, 62, 56, 49, 41, 33, 27, 24, 22, 21, 20, 18, 14, 9, 6, 2, 1, 0, 0, 0, 0, 0, 0, 0, 0, 0, 0, 0, 0, 0, 0, 0, 0, 0, 0, 0, 0, 0, 0, 0, 0, 0, 0, 0, 0, 0, 0, 0, 0, 0, 0, 0, 0, 0, 0, 0, 0, 0, 0, 0, 0, 0, 0, 0, 0, 0, 0, 0, 0, 0, 0, 0, 0, 0, 0, 0, 0, 0, 0, 0, 0, 0, 0, 0, 0, 0, 0, 0, 0, 0, 0, 0, 0, 0, 0, 0, 0, 0, 0, 0, 0, 0, 0, 0, 0, 0, 0, 0, 0, 0, 0, 0, 0, 0, 0, 0, 0, 0, 0, 0, 0, 0, 0, 0, 0, 0, 0, 1, 2, 4, 7, 10, 12, 14, 14, 12, 9, 6, 4, 1, 0, 0, 1, 2, 3, 3, 3, 2, 1, 0, 0, 0, 0, 0, 0, 0, 0, 0, 0, 0, 0, 0, 0, 0, 0, 0, 0, 0, 0, 0, 0, 0, 0, 0, 0, 0, 0, 0, 0, 0, 0, 0, 0, 0, 0, 0, 0, 0, 0, 0, 0, 0, 0, 0, 0, 0, 0, 0, 0, 0, 0, 0, 0, 0, 0, 0, 0, 0, 0, 0, 0, 0, 0, 0, 0, 0, 0, 0, 0, 0, 0, 0, 0, 0, 0, 0, 0, 0, 0, 0, 0, 0, 0, 0, 0, 0, 0, 0, 0, 0, 0, 0, 0, 0, 0, 0, 0, 0, 0, 0, 0, 0, 0, 0, 0, 0, 0, 0, 0, 1, 1, 1, 1, 1, 0, 0, 0, 0, 0, 1, 1, 1, 1, 1, 0, 0, 0, 0, 0, 0, 0, 0, 0, 0, 0, 0, 0, 0, 0, 0, 0, 0, 0, 0, 0, 0, 0, 0, 0, 0, 0, 0, 0, 0, 0, 0, 0, 0, 0, 0, 0, 0, 0, 0, 0, 0, 0, 0, 0, 0, 0, 0, 0, 0, 0, 0, 0, 0, 0, 0, 0, 0, 0, 0, 0, 0, 0, 0, 0, 0, 0, 0, 0, 0, 0, 0, 0, 0, 0, 0, 0, 0, 0, 0, 0, 0, 0, 0, 0, 0, 0, 0, 0, 0, 0, 0, 0, 0, 0, 0, 0, 0, 0, 0, 0, 0, 0, 0, 0, 0, 0, 0, 0, 0, 0, 0, 0, 0, 0, 0, 0, 0, 0, 0, 0, 0, 0, 0, 0, 0, 0, 0, 0, 0, 0, 0, 0, 0, 0, 0, 0, 0, 0, 0, 0, 0, 0, 0, 0, 0, 0, 0, 0, 0, 0, 0, 0, 0, 0, 0, 0, 0, 0, 0, 0, 0, 0, 0, 0, 1, 1, 1, 1, 0, 0, 0, 0, 0, 0, 0, 0, 0, 0, 0, 0, 0, 0, 0, 0, 0, 0, 0, 0, 0, 0, 0, 0, 0, 0, 0, 0, 0, 0, 0, 0, 0, 0, 0, 0, 0, 0, 0, 0, 0, 0, 1, 2, 2, 2, 2, 2, 1, 1, 1, 1, 0, 0, 0, 0, 0, 0, 0, 0, 1, 1, 0, 0, 0, 0, 0, 0, 0, 0, 0, 0, 0, 0, 0, 0, 0, 0, 0, 0, 0, 0, 0, 0, 0, 0, 0, 0, 0, 0, 0, 0, 0, 1, 1, 0, 0, 0, 0, 1, 2, 2, 2, 2, 1, 0, 0, 0, 0, 0, 1, 2, 4, 5, 5, 5, 4, 2, 1, 0, 0, 0, 0, 0, 0, 0, 0, 1, 2, 3, 3, 3, 2, 1, 0, 0, 0, 0, 0, 0, 0, 0, 0, 0, 0, 0, 0, 0, 0, 0, 0, 0, 0, 0, 0, 0, 0, 0, 0, 0, 0, 0, 0, 0, 0, 0, 0, 0, 0, 0, 1, 1, 1, 1, 1, 0, 0, 0, 0, 0, 0, 0, 0, 0, 0, 0, 0, 0, 0, 0, 0, 0, 0, 0, 0, 0, 0, 0, 0, 0, 0, 0, 0, 0, 0, 0, 0, 0, 0, 0, 0, 0, 0, 0, 0, 0, 0, 0, 0, 0, 0, 0, 0, 0, 0, 0, 0, 0, 0, 0, 0, 0, 0, 0, 0, 0, 0, 0, 0, 0, 0, 0, 0, 0, 0, 0, 1, 2, 3, 3, 3, 2, 1, 0, 0, 0, 0, 0, 0, 1, 1, 0, 0, 0, 0, 0, 0, 0, 0, 0, 0, 1, 1, 0, 0, 0, 0, 0, 0, 0, 0, 0, 0, 0, 0, 0, 0, 0, 0, 0, 0, 0, 0, 0, 0, 0, 0, 0, 0, 0, 0, 0, 0, 0, 0, 0, 0, 0, 0, 0, 0, 0, 2, 3, 5, 5, 5, 4, 3, 1, 0, 0, 1, 2, 2, 2, 2, 1, 0, 0, 0, 0, 0, 0, 0, 0, 0, 0, 0, 0, 0, 0, 0, 1, 1, 0, 0, 0, 0, 0, 0, 0, 0, 0, 0, 1, 1, 0, 0, 0, 0, 0, 0, 0, 0, 0, 0, 0, 0, 0, 0, 0, 0, 0, 0, 0, 0, 0, 0, 0, 0, 0, 0, 0, 0, 0, 0, 0, 0, 0, 0, 0, 0, 0, 0, 0, 0, 0, 0, 0, 0, 0, 0, 0, 0, 0, 0, 0, 0, 0, 0, 1, 3, 4, 4, 4, 3, 1, 0, 0, 0, 0, 0, 0, 1, 1, 2, 2, 2, 2, 2, 2, 1, 1, 0, 0, 0, 0, 0, 0, 0, 0, 0, 0, 0, 0, 0, 0, 0, 0, 0, 0, 0, 0, 0, 0, 0, 0, 0, 0, 0, 0, 0, 0, 0, 0, 0, 0, 0, 0, 0, 0, 0, 0, 0, 1, 1, 2, 2, 2, 2, 1, 1, 0, 0, 0, 0, 0, 0, 1, 1, 1, 1, 1, 0, 0, 0, 0, 0, 0, 0, 0, 0, 0, 0, 0, 0, 0, 0, 0, 0, 0, 0, 0, 0, 0, 0, 1, 2, 3, 4, 3, 2, 1, 0, 0, 0, 0, 0, 0, 0, 0, 0, 0, 0, 0, 0, 0, 0, 0, 0, 0, 0, 0, 1, 1, 2, 2, 1, 1, 1, 1, 2, 3, 5, 5, 3, 2, 1, 0, 0, 0, 0, 0, 0, 1, 2, 3, 5, 6, 5, 4, 3, 1, 0, 0, 0, 0, 0, 0, 0, 0, 0, 0, 0, 0, 0, 0, 0, 0, 0, 0, 0, 0, 0, 0, 0, 0, 0, 0, 0, 0, 0, 0, 0, 0, 0, 0, 0, 0, 0, 0, 0, 0, 1, 1, 1, 1, 0, 0, 0, 0, 0, 0, 0, 0, 0, 0, 0, 0, 0, 0, 0, 0, 0, 0, 0, 0, 0, 0, 0, 0, 0, 0, 0, 0, 0, 0, 0, 0, 0, 0, 0, 0, 0, 0, 0, 0, 0, 0, 0, 0, 0, 0, 0, 0, 0, 0, 1, 2, 3, 3, 2, 1, 0, 0, 0, 0, 1, 3, 4, 5, 6, 5, 4, 2, 1, 0, 0, 1, 1, 2, 2, 2, 1, 1, 0, 0, 0, 0, 0, 0, 0, 0, 0, 0, 1, 3, 4, 4, 4, 3, 1, 0, 0, 0, 0, 0, 0, 0, 0, 2, 4, 5, 7, 7, 5, 4, 2, 0, 0, 0, 0, 0, 0, 0, 0, 0, 0, 0, 0, 0, 0, 0, 0, 0, 0, 0, 0, 0, 0, 0, 0, 0, 0, 0, 0, 0, 0, 0, 0, 0, 0, 0, 0, 0, 0, 0, 1, 2, 2, 2, 2, 1, 0, 0, 0, 0, 0, 0, 0, 1, 1, 1, 1, 0, 0, 0, 0, 0, 0, 1, 3, 4, 5, 5, 4, 2, 1, 0, 1, 2, 4, 4, 5, 4, 3, 1, 0, 0, 0, 0, 1, 2, 3, 3, 2, 1, 0, 0, 0, 0, 0, 0, 0, 0, 0, 0, 0, 0, 0, 0, 0, 0, 0, 0, 0, 0, 0, 0, 0, 0, 0, 0, 0, 0, 0, 0, 0, 0, 0, 0, 0, 0, 0, 0, 0, 0, 0, 0, 0, 0, 0, 0, 0, 0, 0, 1, 1, 1, 1, 1, 0, 0, 0, 0, 0, 0, 0, 0, 0, 0, 0, 0, 0, 0, 1, 1, 1, 1, 0, 0, 0, 0, 0, 0, 0, 0, 0, 0, 1, 2, 3, 5, 5, 3, 2, 1, 0, 0, 0, 0, 0, 0, 0, 0, 0, 0, 1, 2, 2, 3, 2, 2, 1, 0, 0, 0, 0, 0, 0, 0, 0, 1, 3, 4, 5, 5, 4, 3, 1, 0, 0, 0, 0, 0, 0, 0, 0, 0, 0, 1, 1, 2, 2, 1, 1, 0, 0, 0, 0, 0, 0, 0, 0, 0, 0, 0, 0, 0, 0, 0, 0, 0, 0, 0, 0, 0, 0, 0, 0, 1, 3, 4, 4, 4, 3, 1, 0, 0, 0, 0, 0, 0, 0, 0, 0, 0, 0, 0, 1, 1, 2, 2, 2, 2, 2, 1, 1, 0, 0, 0, 0, 0, 0, 0, 0, 0, 0, 0, 0, 0, 0, 0, 0, 0, 0, 0, 1, 1, 2, 2, 1, 1, 0, 0, 0, 0, 0, 0, 0, 0, 0, 0, 0, 1, 1, 1, 1, 1, 0, 0, 1, 1, 2, 2, 1, 1, 0, 0, 0, 0, 0, 0, 0, 0, 0, 0, 0, 0, 0, 0, 0, 0, 0, 0, 0, 0, 0, 0, 0, 0, 0, 0, 0, 0, 0, 0, 0, 0, 0, 0, 0, 1, 1, 2, 2, 2, 2, 2, 2, 2, 2, 1, 1, 0, 0, 0, 0, 0, 0, 0, 0, 0, 0, 0, 0, 0, 0, 0, 0, 0, 0, 0, 0, 0, 0, 0, 0, 0, 0, 0, 1, 1, 1, 1, 0, 0, 0, 0, 0, 1, 1, 1, 1, 1, 0, 0, 0, 0, 0, 0, 0, 0, 0, 0, 0, 0, 0, 0, 1, 1, 2, 2, 1, 1, 0, 0, 0, 0, 0, 0, 0, 0, 0, 0, 0, 0, 0, 0, 0, 0, 0, 0, 0, 1, 1, 2, 2, 1, 1, 0, 0, 0, 0, 0, 0, 1, 1, 2, 2, 2, 2, 2, 1, 1, 0, 0, 0, 0, 0, 0, 0, 0, 0, 1, 1, 1, 1, 0, 0, 0, 0, 0, 0, 1, 2, 3, 4, 5, 4, 3, 1, 0, 0, 0, 0, 1, 1, 1, 1, 1, 0, 0, 0, 0, 0, 0, 0, 0, 0, 0, 0, 0, 0, 0, 0, 0, 1, 1, 2, 3, 4, 4, 5, 6, 5, 4, 3, 1, 0, 0, 0, 0, 0, 1, 2, 3, 3, 2, 1, 0, 0, 0, 1, 2, 3, 3, 2, 1, 0, 0, 0, 0, 2, 4, 5, 7, 7, 7, 5, 3, 1, 0, 0, 0, 0, 0, 0, 0, 0, 0, 0, 0, 0, 1, 1, 1, 1, 1, 0, 0, 0, 0, 0, 1, 1, 1, 1, 1, 0, 0, 0, 0, 0, 0, 1, 2, 3, 5, 5, 4, 3, 2, 1, 0, 0, 0, 0, 0, 0, 0, 0, 0, 0, 0, 0, 0, 0, 0, 0, 1, 2, 2, 3, 2, 2, 1, 0, 0, 0, 0, 0, 1, 2, 3, 3, 2, 1, 0, 0, 0, 0, 0, 0, 0, 0, 0, 0, 0, 1, 3, 4, 4, 4, 3, 1, 0, 0, 0, 0, 0, 0, 0, 0, 0, 0, 0, 0, 0, 0, 0, 0, 0, 0, 0, 0, 0, 0, 1, 2, 3, 4, 3, 2, 1, 0, 0, 0, 1, 3, 4, 5, 4, 3, 2, 1, 0, 0, 0, 0, 0, 0, 0, 0, 0, 0, 0, 0, 0, 0, 0, 0, 0, 0, 0, 0, 0, 0, 0, 0, 0, 0, 0, 0, 0, 0, 0, 0, 0, 0, 0, 0, 0, 0, 0, 0, 0, 0, 0, 0, 0, 0, 0, 0, 0, 0, 0, 0, 0, 0, 0, 0, 0, 0, 0, 0, 0, 0, 0, 0, 0, 0, 0, 0, 0, 0, 0, 0, 0, 0, 0, 0, 0, 0, 0, 0, 0, 0, 0, 0, 0, 0, 1, 2, 3, 4, 4, 3, 2, 1, 0, 0, 0, 0, 0, 0, 0, 0, 0, 0, 0, 0, 0, 0, 0, 0, 0, 0, 1, 3, 4, 5, 5, 4, 3, 1, 0, 0, 0, 1, 1, 1, 1, 1, 0, 0, 0, 0, 0, 1, 3, 5, 7, 8, 7, 5, 4, 2, 0, 0, 2, 4, 6, 9, 11, 11, 10, 7, 5, 2, 1, 0, 0, 0, 0, 0, 1, 2, 3, 5, 5, 5, 5, 5, 5, 5, 5, 5, 3, 2, 1, 0, 0, 0, 0, 0, 0, 0, 0, 1, 1, 1, 1, 0, 0, 0, 0, 0, 0, 0, 1, 2, 3, 5, 5, 5, 5, 5, 4, 3, 2, 1, 1, 1, 1, 1, 1, 1, 0, 0, 0, 0, 0, 0, 0, 0, 1, 1, 1, 1, 1, 0, 0, 0, 0, 0, 1, 1, 2, 2, 2, 2, 1, 1, 0, 0, 0, 1, 1, 1, 1, 0, 0, 0, 0, 0, 0, 0, 0, 0, 0, 0, 0, 0, 0, 0, 0, 0, 0, 0, 0, 0, 0, 0, 0, 0, 0, 1, 3, 4, 5, 6, 5, 4, 3, 1, 0, 0, 0, 0, 0, 0, 0, 0, 0, 0, 0, 0, 0, 0, 1, 2, 2, 3, 2, 2, 1, 0, 0, 0, 0, 0, 0, 0, 1, 1, 1, 1, 1, 0, 0, 0, 0, 0, 0, 0, 0, 0, 0, 0, 0, 0, 0, 0, 0, 0, 0, 0, 0, 0, 0, 1, 2, 3, 5, 5, 3, 2, 1, 0, 0, 0, 0, 0, 0, 0, 0, 0, 0, 0, 0, 0, 0, 0, 0, 0, 0, 1, 1, 1, 1, 1, 0, 0, 0, 0, 0, 0, 0, 0, 0, 0, 0, 0, 0, 0, 0, 0, 0, 0, 0, 0, 0, 0, 0, 0, 0, 0, 0, 0, 0, 0, 0, 0, 0, 0, 0, 0, 0, 0, 0, 0, 0, 0, 0, 0, 0, 0, 0, 0, 0, 0, 0, 0, 0, 0, 0, 0, 0, 0, 0, 0, 0, 0, 0, 0, 0, 0, 0, 0, 0, 0, 0, 0, 0, 0, 0, 1, 3, 4, 5, 6, 5, 4, 2, 1, 0, 0, 0, 0, 0, 0, 0, 0, 0, 0, 0, 0, 1, 1, 2, 2, 2, 2, 1, 1, 0, 0, 0, 0, 1, 1, 2, 2, 1, 1, 0, 0, 0, 0, 2, 4, 5, 7, 7, 6, 4, 2, 1, 0, 0, 0, 0, 0, 0, 0, 0, 0, 0, 0, 0, 1, 2, 3, 3, 2, 1, 0, 0, 0, 0, 1, 3, 4, 4, 4, 3, 1, 0, 0, 0, 0, 1, 1, 1, 1, 1, 0, 0, 0, 0, 0, 0, 0, 0, 0, 0, 0, 0, 0, 0, 0, 0, 0, 0, 0, 0, 0, 0, 0, 0, 0, 0, 0, 0, 0, 0, 0, 0, 0, 0, 0, 0, 0, 0, 0, 0, 0, 0, 0, 0, 0, 0, 0, 0, 0, 0, 0, 0, 0, 0, 0, 0, 0, 0, 0, 0, 0, 0, 0, 0, 0, 0, 0, 0, 0, 0, 0, 1, 3, 4, 5, 6, 5, 4, 3, 1, 0, 0, 0, 0, 0, 0, 0, 0, 1, 1, 1, 1, 0, 0, 0, 0, 0, 0, 0, 0, 0, 0, 0, 0, 1, 2, 2, 3, 2, 2, 1, 0, 0, 0, 0, 0, 0, 0, 0, 0, 0, 0, 0, 0, 0, 0, 0, 0, 0, 0, 0, 0, 0, 0, 0, 0, 0, 0, 0, 1, 1, 2, 2, 2, 1, 1, 0, 0, 0, 1, 2, 4, 5, 5, 4, 3, 1, 0, 0, 0, 0, 0, 0, 0, 1, 1, 1, 1, 1, 0, 0, 0, 0, 0, 0, 0, 0, 0, 0, 0, 0, 0, 0, 0, 0, 0, 0, 0, 0, 0, 0, 0, 0, 0, 0, 0, 0, 0, 0, 0, 0, 0, 0, 0, 0, 0, 0, 0, 0, 0, 0, 1, 3, 4, 5, 5, 4, 3, 1, 0, 0, 0, 1, 1, 1, 1, 1, 0, 0, 0, 0, 0, 0, 0, 0, 0, 0, 1, 1, 1, 1, 1, 0, 0, 0, 0, 0, 0, 0, 0, 0, 0, 0, 0, 0, 1, 1, 2, 2, 2, 1, 1, 0, 0, 0, 0, 0, 0, 0, 0, 0, 0, 0, 0, 0, 0, 0, 0, 0, 0, 0, 0, 0, 0, 0, 0, 0, 0, 0, 0, 0, 0, 1, 3, 4, 5, 6, 5, 4, 3, 1, 0, 0, 0, 0, 1, 1, 2, 2, 2, 2, 2, 1, 1, 0, 0, 0, 0, 0, 0, 0, 1, 1, 2, 2, 2, 1, 1, 0, 0, 0, 0, 1, 2, 4, 5, 6, 5, 4, 3, 1, 0, 0, 0, 1, 2, 3, 5, 5, 4, 4, 3, 3, 4, 3, 3, 2, 1, 0, 0, 0, 2, 4, 5, 7, 7, 7, 5, 3, 1, 0, 0, 0, 0, 0, 0, 0, 0, 0, 0, 0, 0, 0, 0, 0, 0, 0, 0, 0, 0, 0, 0, 0, 0, 0, 0, 0, 1, 2, 4, 6, 8, 8, 7, 5, 3, 1, 0, 0, 0, 0, 0, 0, 0, 0, 0, 0, 0, 0, 0, 0, 0, 0, 0, 0, 0, 0, 0, 1, 1, 1, 1, 1, 0, 0, 0, 0, 0, 0, 0, 0, 0, 0, 1, 2, 3, 5, 5, 4, 3, 3, 2, 2, 2, 2, 1, 1, 0, 0, 0, 0, 0, 0, 0, 0, 0, 0, 0, 0, 0, 0, 0, 0, 1, 2, 3, 5, 5, 3, 2, 1, 0, 0, 0, 1, 1, 1, 1, 0, 0, 0, 0, 0, 0, 0, 0, 0, 0, 0, 0, 0, 0, 0, 0, 1, 1, 2, 2, 1, 1, 0, 0, 0, 0, 0, 0, 0, 2, 5, 7, 9, 9, 9, 6, 3, 1, 0, 0, 0, 0, 1, 1, 1, 1, 1, 0, 0, 0, 0, 0, 1, 1, 1, 1, 0, 0, 0, 1, 2, 2, 3, 2, 2, 1, 0, 0, 0, 0, 1, 3, 5, 6, 7, 6, 5, 3, 1, 0, 0, 0, 0, 0, 0, 0, 1, 2, 4, 5, 6, 5, 4, 3, 1, 0, 0, 0, 0, 0, 0, 0, 0, 1, 2, 3, 5, 5, 3, 2, 1, 0, 0, 0, 0, 0, 0, 0, 0, 0, 0, 0, 0, 0, 0, 0, 0, 0, 0, 0, 0, 0, 0, 1, 1, 2, 2, 2, 2, 2, 2, 1, 1, 0, 0, 0, 0, 0, 0, 0, 0, 0, 0, 0, 0, 0, 0, 0, 0, 0, 0, 0, 0, 0, 1, 3, 4, 5, 5, 4, 3, 1, 0, 0, 0, 0, 0, 1, 1, 1, 1, 0, 0, 0, 0, 0, 0, 0, 0, 0, 0, 0, 0, 0, 0, 0, 0, 0, 0, 0, 0, 1, 2, 3, 5, 5, 5, 6, 6, 6, 6, 6, 5, 4, 3, 1, 0, 0, 0, 0, 0, 0, 0, 0, 0, 0, 0, 0, 0, 1, 3, 4, 5, 6, 5, 4, 3, 1, 0, 0, 0, 0, 0, 0, 0, 0, 0, 0, 0, 0, 0, 0, 0, 0, 0, 0, 0, 0, 0, 0, 0, 0, 0, 1, 1, 1, 1, 1, 0, 0, 0, 0, 1, 1, 2, 2, 2, 2, 1, 1, 0, 0, 0, 0, 0, 0, 0, 0, 0, 0, 1, 1, 1, 1, 1, 0, 0, 0, 0, 0, 0, 0, 0, 0, 0, 0, 0, 0, 0, 0, 0, 0, 0, 0, 0, 0, 0, 0, 0, 0, 0, 0, 0, 0, 0, 0, 0, 0, 0, 0, 0, 0, 0, 0, 0, 0, 0, 0, 0, 0, 0, 0, 0, 0, 0, 0, 0, 0, 0, 0, 0, 0, 0, 0, 0, 0, 0, 0, 0, 0, 0, 0, 0, 0, 0, 0, 1, 3, 4, 4, 4, 3, 1, 0, 0, 0, 0, 0, 0, 0, 0, 0, 0, 0, 0, 0, 0, 0, 0, 1, 2, 3, 4, 6, 5, 4, 2, 1, 0, 0, 0, 0, 0, 0, 0, 1, 1, 1, 1, 0, 0, 0, 0, 0, 1, 1, 2, 2, 1, 1, 0, 0, 0, 0, 0, 0, 1, 1, 2, 2, 1, 1, 0, 0, 0, 0, 0, 0, 0, 0, 0, 0, 0, 0, 0, 0, 0, 0, 0, 0, 0, 0, 0, 0, 0, 0, 0, 0, 0, 0, 1, 1, 1, 1, 1, 0, 0, 0, 0, 0, 0, 0, 0, 1, 1, 1, 1, 1, 0, 0, 0, 0, 0, 0, 0, 0, 0, 0, 0, 0, 1, 2, 3, 4, 3, 2, 1, 0, 0, 0, 1, 2, 3, 4, 3, 2, 1, 0, 0, 0, 0, 1, 2, 3, 4, 5, 3, 2, 1, 0, 0, 0, 0, 0, 0, 0, 1, 2, 2, 3, 2, 2, 1, 0, 0, 0, 0, 0, 0, 0, 1, 3, 5, 7, 8, 8, 7, 5, 3, 1, 0, 0, 0, 0, 1, 3, 5, 8, 10, 11, 11, 10, 8, 6, 4, 4, 3, 2, 2, 2, 2, 1, 1, 0, 0, 0, 0, 0, 0, 0, 0, 0, 1, 2, 3, 5, 5, 5, 5, 5, 6, 6, 6, 6, 5, 4, 2, 1, 0, 0, 0, 0, 0, 0, 0, 0, 0, 0, 0, 0, 0, 0, 1, 1, 2, 2, 2, 2, 2, 2, 1, 1, 0, 0, 0, 0, 0, 0, 0, 0, 0, 0, 0, 0, 0, 0, 0, 0, 0, 1, 3, 4, 5, 6, 5, 4, 3, 1, 0, 0, 0, 0, 0, 0, 1, 1, 2, 2, 2, 2, 2, 2, 1, 1, 0, 0, 0, 0, 0, 0, 0, 0, 0, 0, 0, 0, 0, 0, 0, 0, 0, 0, 0, 0, 0, 0, 0, 0, 0, 0, 0, 0, 0, 0, 0, 0, 0, 0, 0, 0, 0, 0, 0, 0, 1, 1, 1, 1, 0, 0, 0, 0, 1, 4, 6, 8, 9, 9, 7, 5, 2, 1, 0, 0, 0, 0, 1, 1, 1, 1, 0, 0, 0, 0, 0, 0, 0, 1, 1, 2, 2, 1, 1, 0, 0, 0, 0, 1, 1, 1, 1, 0, 0, 0, 0, 0, 0, 0, 0, 0, 0, 0, 0, 0, 0, 0, 0, 0, 0, 0, 0, 0, 0, 0, 0, 0, 0, 0, 0, 0, 0, 0, 0, 0, 0, 1, 3, 4, 4, 4, 3, 1, 0, 0, 0, 0, 0, 0, 0, 0, 0, 0, 1, 1, 1, 1, 1, 0, 0, 0, 0, 0, 0, 0, 0, 0, 0, 0, 0, 0, 0, 0, 0, 0, 0, 0, 0, 0, 0, 0, 0, 0, 0, 0, 0, 0, 0, 1, 1, 1, 1, 1, 0, 0, 0, 0, 0, 0, 0, 0, 0, 0, 0, 0, 1, 2, 5, 7, 8, 8, 7, 5, 3, 1, 0, 0, 0, 0, 1, 1, 1, 1, 1, 0, 0, 0, 0, 0, 0, 0, 0, 0, 0, 0, 0, 0, 0, 0, 0, 0, 1, 1, 2, 2, 2, 2, 2, 2, 2, 2, 2, 2, 1, 1, 0, 0, 0, 0, 0, 0, 0, 0, 0, 0, 0, 0, 1, 1, 2, 2, 2, 1, 1, 0, 0, 0, 0, 0, 0, 0, 0, 0, 0, 0, 0, 0, 0, 1, 2, 3, 5, 5, 5, 5, 5, 5, 4, 3, 2, 1, 0, 0, 0, 0, 0, 0, 0, 0, 0, 0, 0, 0, 0, 0, 0, 0, 0, 0, 0, 0, 0, 0, 0, 0, 0, 0, 0, 0, 0, 0, 0, 0, 0, 0, 0, 0, 0, 0, 0, 0, 0, 0, 0, 0, 0, 0, 0, 0, 0, 0, 0, 0, 0, 0, 0, 0, 0, 0, 0, 0, 0, 0, 1, 1, 1, 1, 1, 0, 0, 0, 0, 0, 0, 0, 0, 0, 0, 0, 0, 0, 1, 1, 2, 2, 2, 1, 1, 0, 0, 1, 1, 2, 2, 1, 1, 0, 0, 0, 0, 0, 0, 0, 1, 3, 4, 4, 4, 3, 1, 0, 0, 0, 0, 0, 0, 0, 0, 0, 0, 0, 0, 0, 0, 0, 0, 0, 0, 0, 0, 0, 0, 0, 0, 0, 0, 0, 0, 0, 1, 1, 2, 2, 1, 1, 1, 1, 2, 3, 5, 5, 4, 3, 2, 1, 0, 0, 0, 0, 0, 0, 1, 1, 2, 2, 2, 1, 1, 0, 0, 1, 2, 3, 4, 5, 5, 5, 4, 3, 2, 1, 0, 0, 1, 2, 3, 4, 4, 3, 2, 1, 0, 0, 0, 0, 0, 0, 0, 0, 0, 1, 2, 2, 2, 2, 1, 0, 0, 0, 0, 0, 0, 0, 0, 0, 0, 0, 0, 0, 0, 0, 0, 0, 0, 0, 0, 0, 0, 0, 0, 0, 0, 0, 0, 0, 0, 0, 0, 0, 0, 1, 3, 5, 6, 6, 5, 3, 1, 0, 0, 0, 0, 0, 0, 1, 2, 3, 4, 3, 2, 1, 0, 0, 0, 0, 0, 0, 0, 0, 0, 0, 0, 0, 0, 0, 0, 0, 0, 0, 0, 0, 0, 1, 1, 2, 2, 2, 3, 4, 4, 5, 5, 5, 5, 3, 2, 1, 0, 0, 0, 0, 0, 0, 1, 1, 1, 1, 1, 0, 0, 0, 0, 0, 0, 0, 1, 1, 2, 2, 1, 1, 0, 0, 0, 0, 0, 1, 3, 5, 6, 7, 6, 5, 4, 2, 1, 1, 1, 2, 3, 3, 3, 3, 2, 1, 0, 0, 0, 0, 0, 1, 3, 5, 8, 9, 9, 8, 5, 3, 1, 0, 0, 1, 1, 1, 1, 1, 0, 0, 0, 0, 0, 0, 0, 0, 0, 1, 1, 2, 2, 2, 2, 2, 1, 1, 0, 0, 0, 0, 0, 0, 0, 0, 0, 0, 0, 0, 0, 0, 0, 0, 0, 0, 0, 0, 0, 0, 0, 0, 0, 0, 1, 1, 2, 2, 1, 1, 0, 0, 0, 0, 0, 0, 0, 0, 0, 0, 0, 0, 0, 0, 0, 0, 0, 0, 0, 0, 0, 0, 0, 0, 0, 1, 1, 1, 1, 1, 0, 0, 0, 0, 0, 0, 0, 0, 0, 1, 2, 3, 5, 5, 5, 5, 3, 2, 1, 0, 0, 0, 0, 0, 0, 1, 1, 2, 2, 2, 1, 1, 0, 0, 0, 0, 0, 0, 0, 0, 0, 0, 0, 0, 0, 0, 1, 2, 3, 4, 3, 2, 1, 0, 0, 0, 0, 0, 0, 1, 1, 2, 2, 1, 1, 0, 0, 0, 0, 0, 0, 0, 0, 0, 0, 0, 0, 0, 0, 0, 0, 0, 0, 0, 0, 0, 1, 1, 2, 2, 2, 1, 1, 0, 0, 0, 0, 0, 0, 0, 0, 0, 0, 0, 0, 0, 0, 0, 0, 0, 0, 0, 0, 0, 0, 0, 0, 0, 0, 0, 0, 0, 0, 0, 0, 0, 0, 0, 0, 0, 0, 0, 0, 0, 0, 0, 0, 0, 0, 0, 0, 0, 0, 0, 0, 0, 0, 0, 0, 0, 0, 0, 0, 0, 0, 0, 0, 0, 0, 0, 0, 0, 0, 0, 0, 0, 0, 0, 0, 0, 0, 1, 1, 1, 1, 1, 0, 0, 0, 0, 0, 0, 0, 0, 0, 0, 0, 1, 3, 5, 6, 6, 5, 3, 1, 0, 0, 0, 0, 0, 0, 1, 4, 7), 'DATA10': (0, 0, 0, 0, 0, 0, 0, 0, 0, 0, 0, 0, 0, 0, 0, 0, 0, 0, 0, 0, 0, 0, 0, 0, 0, 0, 0, 0, 0, 0, 0, 0, 0, 0, 0, 0, 0, 0, 0, 0, 0, 0, 0, 0, 0, 0, 0, 0, 0, 0, 5, 12, 24, 39, 59, 80, 101, 122, 142, 162, 185, 210, 242, 281, 330, 386, 450, 521, 595, 670, 743, 811, 874, 927, 971, 1004, 1025, 1033, 1028, 1012, 988, 959, 928, 900, 872, 842, 805, 758, 696, 621, 536, 446, 357, 274, 201, 140, 90, 53, 28, 12, 3, 0, 0, 0, 0, 0, 0, 0, 4, 15, 31, 54, 85, 118, 151, 183, 212, 239, 264, 288, 310, 332, 356, 381, 409, 439, 470, 498, 519, 526, 520, 500, 468, 431, 394, 361, 333, 310, 291, 271, 249, 222, 192, 157, 121, 85, 54, 30, 13, 4, 0, 2, 6, 10, 14, 19, 20, 18, 13, 9, 4, 1, 0, 0, 0, 1, 7, 17, 33, 54, 79, 104, 127, 148, 165, 179, 190, 198, 201, 201, 198, 194, 191, 188, 188, 190, 192, 195, 200, 210, 224, 248, 279, 316, 356, 393, 423, 444, 456, 460, 457, 453, 446, 437, 426, 410, 386, 353, 310, 257, 199, 138, 87, 47, 20, 3, 0, 0, 0, 0, 0, 0, 0, 0, 0, 0, 0, 0, 0, 0, 0, 0, 0, 0, 0, 0, 0, 0, 0, 0, 0, 0, 0, 0, 0, 0, 0, 0, 0, 0, 0, 0, 0, 0, 0, 0, 10, 28, 53, 84, 121, 154, 179, 195, 203, 205, 204, 200, 196, 190, 182, 168, 149, 125, 99, 76, 61, 60, 78, 115, 173, 246, 328, 411, 486, 549, 599, 635, 659, 672, 677, 673, 659, 635, 599, 552, 492, 423, 346, 265, 184, 116, 64, 28, 7, 0, 0, 0, 0, 0, 8, 31, 69, 122, 192, 269, 344, 413, 477, 537, 597, 658, 723, 787, 846, 894, 927, 945, 948, 944, 935, 928, 923, 917, 907, 888, 856, 811, 756, 695, 631, 568, 509, 454, 403, 357, 317, 285, 263, 253, 255, 265, 282, 300, 315, 325, 330, 331, 330, 327, 321, 311, 294, 271, 246, 222, 202, 192, 192, 202, 219, 242, 269, 299, 334, 376, 425, 478, 530, 573, 601, 611, 605, 588, 570, 558, 559, 573, 599, 629, 658, 677, 682, 668, 639, 598, 554, 512, 477, 449, 424, 399, 367, 326, 276, 221, 165, 116, 79, 57, 49, 54, 66, 81, 95, 107, 119, 131, 148, 171, 202, 242, 291, 346, 405, 464, 519, 563, 596, 618, 630, 634, 631, 619, 594, 556, 502, 436, 363, 288, 216, 151, 95, 54, 26, 8, 0, 0, 0, 0, 0, 0, 0, 0, 0, 0, 0, 0, 0, 0, 0, 0, 0, 0, 0, 0, 0, 0, 0, 0, 0, 0, 0, 0, 0, 0, 0, 0, 0, 0, 0, 0, 0, 0, 0, 0, 0, 0, 0, 0, 1, 8, 17, 30, 43, 55, 62, 62, 58, 49, 37, 25, 15, 7, 3, 0, 0, 0, 0, 0, 0, 0, 0, 0, 0, 0, 0, 0, 0, 0, 0, 0, 3, 7, 14, 20, 26, 30, 29, 25, 19, 12, 7, 3, 0, 0, 0, 0, 0, 0, 0, 0, 0, 0, 0, 0, 2, 24, 66, 128, 208, 308, 405, 492, 563, 619, 660, 688, 704, 707, 693, 658, 599, 518, 425, 329, 241, 170, 121, 97, 95, 114, 153, 208, 276, 350, 427, 498, 562, 616, 665, 712, 758, 803, 843, 871, 881, 871, 842, 802, 762, 732, 718, 721, 734, 748, 753, 744, 723, 695, 668, 652, 650, 663, 686, 712, 731, 737, 727, 699, 659, 613, 564, 513, 461, 407, 347, 281, 213, 146, 90, 48, 19, 3, 1, 7, 14, 22, 31, 40, 45, 47, 46, 43, 37, 29, 19, 12, 5, 1, 0, 0, 0, 0, 0, 9, 30, 62, 106, 164, 225, 284, 336, 378, 412, 439, 463, 486, 509, 527, 536, 534, 517, 489, 455, 420, 391, 374, 372, 383, 408, 441, 474, 504, 524, 534, 535, 532, 531, 535, 545, 561, 583, 605, 626, 641, 647, 645, 635, 621, 606, 591, 574, 549, 512, 461, 394, 316, 232, 152, 90, 44, 14, 0, 0, 0, 0, 0, 0, 0, 0, 0, 0, 0, 0, 0, 0, 0, 0, 0, 0, 0, 0, 0, 0, 0, 0, 0, 0, 0, 15, 43, 83, 134, 198, 257, 309, 350, 382, 404, 423, 437, 450, 460, 467, 469, 467, 461, 452, 442, 431, 419, 403, 382, 351, 310, 257, 197, 133, 82, 42, 15, 0, 9, 33, 70, 119, 180, 241, 294, 335, 364, 384, 398, 409, 418, 425, 428, 427, 422, 415, 409, 408, 411, 417, 421, 417, 399, 365, 317, 259, 198, 139, 88, 51, 25, 9, 1, 2, 19, 47, 89, 144, 210, 275, 334, 384, 422, 451, 471, 483, 493, 500, 508, 518, 530, 542, 555, 566, 575, 582, 587, 591, 595, 600, 604, 609, 616, 626, 638, 650, 660, 662, 650, 619, 570, 502, 420, 332, 244, 163, 98, 52, 22, 5, 0, 0, 0, 0, 0, 0, 0, 0, 0, 0, 0, 0, 0, 0, 0, 0, 0, 0, 0, 0, 0, 0, 0, 0, 7, 23, 50, 85, 132, 180, 226, 266, 297, 317, 326, 323, 308, 281, 243, 196, 144, 94, 55, 26, 8, 0, 0, 0, 0, 0, 0, 0, 0, 0, 0, 0, 0, 0, 0, 0, 0, 0, 0, 0, 0, 0, 9, 35, 80, 147, 238, 343, 452, 553, 640, 709, 756, 779, 778, 751, 697, 621, 526, 421, 316, 220, 138, 78, 38, 15, 2, 0, 0, 0, 0, 0, 0, 0, 3, 16, 41, 81, 137, 205, 279, 351, 415, 467, 505, 527, 532, 518, 485, 431, 361, 282, 203, 130, 74, 36, 13, 2, 0, 0, 0, 0, 0, 0, 0, 0, 0, 0, 0, 0, 0, 0, 0, 0, 0, 0, 0, 0, 0, 0, 0, 0, 0, 0, 0, 0, 0, 0, 0, 0, 0, 0, 0, 0, 0, 0, 0, 0, 0, 0, 0, 0, 0, 0, 0, 0, 0, 0, 0, 0, 0, 0, 0, 0, 0, 0, 0, 0, 0, 0, 0, 0, 0, 0, 0, 0, 0, 0, 0, 0, 0, 0, 0, 0, 0, 0, 1, 15, 43, 84, 139, 209, 280, 348, 409, 460, 499, 528, 546, 556, 561, 565, 568, 573, 578, 582, 583, 580, 572, 561, 549, 540, 537, 541, 553, 571, 591, 612, 628, 634, 625, 599, 551, 484, 403, 315, 229, 152, 90, 47, 20, 5, 0, 0, 0, 0, 0, 0, 0, 0, 1, 2, 3, 3, 2, 2, 0, 0, 0, 0, 0, 0, 0, 0, 0, 0, 0, 0, 0, 0, 0, 0, 0, 0, 0, 0, 0, 0, 0, 0, 0, 0, 0, 0, 0, 6, 27, 65, 123, 202, 296, 393, 481, 553, 603, 626, 622, 591, 536, 462, 375, 282, 192, 117, 62, 26, 5, 0, 15, 44, 89, 152, 235, 323, 409, 487, 552, 597, 620, 618, 591, 539, 467, 383, 295, 212, 141, 86, 48, 23, 10, 3, 0, 0, 0, 0, 0, 0, 0, 0, 0, 0, 0, 0, 0, 0, 0, 0, 0, 0, 0, 0, 0, 0, 0, 0, 0, 0, 0, 0, 0, 0, 0, 0, 0, 0, 0, 0, 0, 0, 0, 0, 0, 0, 0, 0, 0, 0, 0, 0, 0, 0, 0, 0, 0, 0, 0, 1, 2, 3, 4, 4, 4, 9, 18, 37, 66, 107, 160, 220, 286, 351, 408, 451, 474, 473, 447, 401, 340, 272, 204, 141, 88, 50, 24, 8, 0, 0, 0, 0, 0, 0, 0, 0, 0, 0, 0, 0, 0, 0, 0, 0, 0, 0, 0, 1, 7, 17, 32, 51, 73, 92, 105, 112, 111, 108, 108, 120, 148, 199, 273, 363, 463, 559, 640, 698, 730, 738, 729, 711, 694, 684, 686, 701, 727, 758, 786, 802, 796, 764, 703, 618, 515, 402, 290, 189, 110, 55, 20, 2, 0, 0, 0, 0, 0, 0, 0, 0, 0, 0, 0, 0, 0, 0, 0, 0, 0, 0, 0, 0, 0, 0, 0, 0, 0, 0, 0, 0, 0, 0, 0, 0, 0, 0, 0, 0, 0, 0, 0, 0, 0, 0, 0, 0, 0, 0, 0, 0, 0, 0, 0, 0, 0, 0, 0, 0, 0, 0, 0, 0, 0, 0, 0, 0, 0, 0, 0, 0, 0, 16, 55, 121, 214, 336, 468, 596, 707, 791, 839, 849, 817, 744, 636, 504, 364, 232, 132, 61, 18, 0, 0, 0, 0, 0, 0, 0, 0, 0, 0, 0, 0, 0, 0, 0, 0, 0, 0, 0, 0, 0, 0, 0, 0, 0, 0, 0, 0, 0, 0, 0, 0, 0, 0, 0, 0, 0, 0, 0, 0, 0, 0, 0, 0, 0, 0, 0, 0, 0, 0, 0, 0, 0, 0, 0, 0, 7, 30, 74, 140, 227, 328, 428, 515, 578, 611, 611, 579, 519, 437, 342, 245, 156, 89, 42, 13, 0, 0, 0, 0, 2, 24, 69, 141, 243, 372, 511, 645, 759, 844, 894, 906, 889, 851, 806, 765, 739, 731, 740, 755, 767, 766, 745, 707, 655, 601, 555, 528, 524, 543, 581, 628, 668, 692, 688, 652, 584, 491, 386, 280, 184, 107, 55, 22, 5, 9, 32, 71, 127, 200, 280, 356, 422, 471, 499, 508, 502, 485, 465, 451, 448, 458, 482, 514, 546, 570, 578, 566, 537, 498, 459, 433, 430, 455, 503, 566, 630, 682, 709, 705, 668, 600, 510, 406, 301, 202, 121, 64, 27, 6, 0, 0, 0, 0, 0, 0, 0, 0, 0, 0, 0, 0, 0, 0, 0, 0, 0, 6, 29, 72, 139, 232, 345, 463, 575, 669, 733, 763, 751, 700, 614, 503, 381, 261, 159, 85, 36, 9, 0, 0, 0, 0, 0, 0, 0, 0, 0, 0, 0, 0, 0, 0, 0, 0, 0, 0, 0, 0, 0, 0, 0, 0, 0, 0, 0, 6, 29, 68, 125, 202, 290, 376, 451, 506, 536, 539, 521, 486, 446, 411, 391, 388, 403, 428, 456, 476, 479, 459, 416, 353, 278, 198, 125, 70, 32, 9, 0, 0, 0, 0, 4, 25, 63, 117, 190, 274, 356, 426, 477, 504, 507, 488, 455, 418, 387, 372, 376, 398, 433, 472, 503, 517, 508, 473, 415, 337, 253, 169, 101, 51, 20, 3, 0, 0, 0, 0, 5, 22, 53, 100, 162, 235, 307, 370, 417, 443, 445, 422, 376, 312, 238, 163, 100, 53, 28, 23, 32, 47, 63, 74, 78, 76, 67, 53, 37, 23, 11, 3, 0, 0, 0, 0, 0, 0, 0, 0, 0, 0, 0, 0, 0, 0, 0, 0, 0, 0, 0, 0, 0, 0, 0, 0, 0, 0, 0, 0, 0, 0, 0, 0, 0, 0, 9, 42, 103, 192, 311, 448, 581, 693, 771, 807, 800, 755, 687, 612, 547, 508, 500, 520, 556, 594, 616, 610, 573, 505, 415, 316, 220, 135, 74, 33, 9, 0, 0, 0, 0, 0, 0, 0, 2, 4, 5, 5, 5, 4, 2, 3, 14, 36, 75, 131, 203, 284, 366, 438, 490, 517, 512, 477, 417, 338, 253, 170, 102, 53, 21, 4, 0, 0, 0, 0, 0, 0, 0, 0, 0, 0, 0, 0, 0, 0, 0, 0, 0, 0, 0, 3, 24, 62, 119, 195, 288, 378, 455, 511, 538, 532, 495, 433, 352, 264, 178, 107, 56, 22, 4, 0, 0, 0, 0, 0, 0, 0, 0, 0, 0, 0, 0, 0, 0, 0, 0, 0, 0, 0, 0, 4, 15, 31, 51, 74, 93, 104, 106, 99, 85, 66, 46, 29, 15, 6, 1, 0, 0, 0, 0, 0, 0, 0, 0, 14, 48, 104, 185, 291, 405, 511, 594, 641, 648, 613, 542, 445, 336, 227, 137, 71, 28, 4, 0, 0, 0, 0, 0, 0, 0, 0, 0, 0, 0, 0, 0, 0, 0, 0, 0, 0, 0, 0, 0, 0, 0, 0, 0, 0, 0, 0, 0, 0, 0, 0, 0, 0, 4, 17, 36, 60, 87, 111, 125, 127, 119, 102, 80, 56, 35, 19, 8, 1, 0, 0, 0, 0, 0, 0, 0, 0, 0, 0, 0, 0, 0, 0, 0, 2, 21, 58, 117, 196, 294, 392, 477, 538, 567, 559, 518, 448, 360, 266, 176, 104, 53, 21, 4, 0, 0, 0, 0, 3, 26, 69, 137, 231, 347, 465, 572, 652, 694, 694, 650, 568, 461, 342, 227, 135, 68, 25, 4, 0, 0, 0, 0, 0, 0, 0, 0, 0, 0, 0, 0, 0, 0, 0, 0, 0, 12, 40, 87, 154, 242, 335, 425, 499, 548, 567, 555, 517, 462, 403, 355, 331, 334, 366, 415, 469, 510, 528, 514, 470, 400, 314, 224, 142, 80, 36, 10, 0, 0, 0, 0, 0, 0, 0, 0, 0, 0, 0, 0, 0, 0, 0, 0, 0, 0, 0, 0, 0, 6, 17, 33, 52, 72, 86, 90, 84, 72, 60, 58, 74, 118, 191, 288, 401, 513, 607, 668, 686, 657, 587, 485, 365, 244, 146, 74, 26, 2, 0, 0, 0, 0, 0, 0, 0, 5, 15, 29, 45, 63, 75, 79, 73, 61, 48, 42, 52, 86, 148, 237, 343, 454, 550, 618, 646, 630, 572, 481, 371, 257, 159, 85, 34, 7, 0, 0, 0, 0, 0, 14, 42, 85, 142, 215, 288, 353, 401, 426, 423, 392, 335, 259, 176, 107, 53, 18, 0, 0, 0, 0, 0, 0, 0, 0, 0, 0, 0, 0, 0, 0, 0, 0, 0, 0, 0, 0, 0, 0, 0, 0, 0, 0, 0, 0, 0, 0, 0, 0, 0, 6, 29, 70, 127, 201, 283, 356, 411, 442, 444, 422, 384, 342, 309, 299, 318, 366, 438, 520, 596, 649, 669, 648, 587, 495, 386, 272, 170, 94, 42, 12, 0, 0, 0, 0, 0, 0, 0, 0, 0, 0, 0, 0, 0, 0, 0, 0, 0, 0, 0, 0, 0, 0, 0, 0, 0, 0, 0, 0, 2, 18, 50, 101, 172, 262, 358, 445, 512, 548, 546, 503, 427, 332, 230, 141, 74, 30, 6, 0, 0, 0, 0, 0, 0, 0, 0, 0, 2, 4, 6, 6, 6, 5, 3, 0, 8, 28, 62, 109, 171, 239, 305, 358, 391, 399, 380, 333, 266, 190, 120, 65, 27, 5, 0, 8, 20, 37, 57, 80, 97, 107, 107, 98, 81, 60, 39, 22, 10, 2, 0, 0, 0, 0, 0, 6, 32, 78, 145, 233, 331, 419, 483, 512, 505, 465, 406, 345, 299, 281, 297, 341, 401, 462, 506, 520, 499, 444, 361, 265, 172, 99, 45, 14, 12, 30, 52, 77, 103, 120, 126, 120, 106, 88, 70, 56, 51, 54, 66, 82, 98, 109, 111, 103, 87, 66, 43, 25, 12, 3, 0, 0, 0, 0, 0, 6, 32, 82, 156, 256, 373, 486, 579, 640, 658, 631, 562, 463, 347, 231, 137, 68, 24, 3, 0, 0, 0, 0, 0, 0, 0, 0, 0, 0, 0, 0, 0, 0, 0, 0, 0, 0, 0, 0, 0, 0, 0, 0, 0, 0, 0, 0, 0, 0, 0, 0, 0, 0, 0, 0, 0, 0, 0, 0, 0, 0, 0, 0, 0, 24, 77, 163, 284, 441, 602, 747, 853, 902, 886, 811, 687, 535, 376, 235, 129, 57, 15, 0, 0, 0, 0, 9, 39, 93, 175, 284, 411, 534, 633, 694, 704, 662, 575, 458, 330, 209, 118, 54, 17, 0, 0, 0, 0, 0, 0, 0, 0, 0, 0, 0, 0, 0, 0, 0, 0, 0, 0, 14, 56, 126, 224, 348, 480, 596, 677, 711, 695, 631, 529, 405, 279, 170, 89, 36, 8, 0, 0, 0, 0, 0, 0, 0, 0, 0, 0, 0, 0, 0, 0, 0, 0, 0, 0, 2, 22, 62, 124, 207, 309, 409, 494, 552, 572, 551, 492, 402, 297, 193, 111, 51, 15, 0, 0, 0, 0, 0, 0, 0, 0, 0, 0, 0, 0, 0, 0, 0, 0, 0, 0, 0, 0, 0, 0, 0, 0, 0, 0, 0, 0, 0, 0, 0, 0, 0, 0, 0, 0, 0, 0, 0, 0, 0, 0, 0, 0, 0, 0, 0, 0, 0, 0, 0, 0, 0, 0, 1, 15, 46, 95, 163, 249, 339, 419, 478, 507, 501, 461, 395, 311, 225, 146, 87, 49, 34, 36, 48, 61, 71, 72, 65, 53, 39, 28, 24, 29, 44, 64, 88, 109, 124, 129, 123, 107, 85, 61, 38, 21, 9, 3, 0, 0, 0, 0, 0, 0, 7, 32, 77, 141, 223, 314, 393, 449, 471, 455, 410, 346, 283, 241, 236, 275, 353, 455, 560, 642, 682, 670, 608, 506, 384, 260, 156, 81, 32, 7, 0, 0, 0, 0, 0, 0, 0, 0, 1, 8, 20, 35, 53, 69, 78, 79, 70, 56, 41, 32, 29, 36, 49, 65, 79, 85, 82, 70, 55, 44, 47, 71, 122, 200, 295, 396, 485, 547, 572, 554, 496, 410, 307, 203, 120, 59, 20, 1, 0, 0, 0, 0, 0, 0, 0, 0, 0, 0, 0, 0, 0, 0, 0, 0, 0, 0, 0, 0, 9, 38, 92, 171, 277, 397, 511, 601, 651, 652, 606, 521, 413, 301, 202, 130, 85, 66, 63, 66, 67, 63, 52, 37, 23, 11, 3, 0, 0, 0, 0, 0, 0, 0, 0, 0, 5, 15, 30, 48, 70, 87, 96, 96, 84, 64, 44, 25, 10, 11, 39, 94, 173, 279, 397, 508, 592, 636, 630, 577, 484, 368, 248, 149, 75, 28, 4, 0, 0, 0, 0, 0, 14, 46, 99, 170, 258, 346, 417, 459, 467, 439, 380, 299, 210, 131, 70, 29, 5, 0, 0, 0, 0, 0, 0, 0, 0, 0, 0, 0, 0, 0, 0, 0, 0, 0, 0, 0, 0, 0, 0, 0, 0, 0, 0, 0, 0, 0, 0, 0, 0, 0, 0, 0, 0, 0, 0, 0, 0, 0, 0, 0, 0, 0, 0, 24, 84, 182, 317, 490, 671, 828, 939, 984, 958, 865, 722, 552, 385, 243, 141, 83, 60, 60, 69, 74, 70, 56, 39, 23, 9, 1, 0, 0, 0, 0, 0, 0, 0, 0, 0, 0, 0, 0, 0, 0, 0, 0, 0, 0, 0, 0, 0, 0, 0, 0, 19, 67, 147, 256, 391, 525, 630, 688, 690, 642, 563, 484, 433, 432, 490, 595, 723, 843, 923, 943, 894, 784, 631, 461, 296, 170, 79, 25, 0, 0, 0, 0, 0, 14, 49, 108, 190, 295, 402, 493, 551, 567, 542, 485, 411, 344, 301, 296, 332, 401, 486, 563, 610, 614, 571, 493, 403, 327, 290, 303, 368, 470, 589, 696, 767, 784, 743, 649, 518, 372, 236, 132, 59, 17, 0, 0, 0, 0, 0, 0, 11, 43, 97, 174, 273, 378, 471, 536, 562, 546, 493, 417, 339, 280, 258, 282, 347, 439, 533, 605, 636, 617, 550, 448, 329, 213, 123, 58, 18, 0, 0, 0, 0, 0, 0, 0, 5, 16, 30, 50, 71, 89, 99, 98, 87, 67, 46, 27, 11, 2, 0, 0, 0, 0, 0, 0, 0, 0, 0, 7, 28, 65, 121, 198, 285, 369, 439, 483, 492, 465, 405, 325, 233, 149, 83, 37, 9, 0, 0, 0, 0, 0, 0, 0, 1, 27, 84, 180, 314, 487, 666, 825, 940, 990, 969, 881, 742, 573, 399, 247, 134, 57, 14, 0, 0, 0, 0, 0, 12, 40, 86, 153, 240, 334, 422, 489, 523, 518, 474, 396, 299, 197, 116, 55, 18, 0, 0, 0, 0, 0, 0, 0, 0, 0, 0, 0, 0, 0, 0, 0, 0, 0, 0, 0, 0, 0, 0, 0, 0, 0, 0, 0, 0, 0, 0, 0, 0, 0, 0, 0, 0, 0, 0, 0, 0, 0, 0, 0, 0, 0, 0, 0, 0, 0, 0, 0, 0, 0, 0, 0, 0, 0, 0, 0, 0, 0, 0, 0, 0, 0, 0, 0, 0, 0, 0, 0, 0, 0, 0, 0, 0, 0, 0, 0, 0, 1, 10, 25, 46, 70, 94, 110, 114, 108, 91, 69, 45, 27, 12, 4, 0, 0, 0, 0, 0, 0, 0, 0, 0, 0, 0, 0, 0, 0, 0, 0, 0, 0, 0, 0, 0, 0, 0, 0, 0, 0, 0, 0, 0, 0, 0, 0, 0, 4, 17, 41, 81, 138, 210, 289, 366, 428, 465, 469, 439, 379, 299, 211, 132, 72, 31, 7, 0, 0, 0, 0, 0, 0, 0, 0, 0, 0, 2, 4, 5, 5, 5, 4, 2, 6, 22, 54, 106, 182, 278, 387, 497, 593, 661, 687, 667, 602, 501, 381, 259, 157, 82, 33, 7, 0, 0, 0, 0, 0, 0, 15, 48, 100, 170, 257, 342, 411, 454, 462, 433, 373, 293, 203, 125, 66, 25, 4, 0, 0, 0, 0, 0, 0, 0, 0, 0, 1, 4, 5, 5, 5, 4, 2, 0, 0, 18, 55, 111, 185, 275, 358, 420, 447, 437, 393, 329, 264, 220, 214, 256, 340, 451, 563, 649, 690, 675, 607, 500, 374, 250, 147, 75, 29, 6, 0, 0, 0, 0, 0, 0, 0, 0, 0, 0, 0, 0, 0, 0, 0, 0, 0, 0, 0, 0, 0, 0, 0, 1, 1, 1, 1, 0, 0, 0, 0, 14, 49, 110, 200, 318, 446, 562, 649, 690, 680, 624, 535, 430, 327, 239, 172, 126, 97, 77, 61, 44, 30, 17, 7, 1, 0, 0, 0, 0, 0, 0, 0, 0, 0, 0, 0, 0, 0, 0, 0, 0, 0, 0, 0, 0, 3, 13, 35, 70, 122, 189, 264, 339, 401, 441, 452, 433, 390, 339, 296, 275, 285, 327, 390, 457, 512, 538, 528, 484, 421, 354, 304, 287, 311, 369, 448, 524, 580, 598, 573, 508, 414, 304, 197, 114, 53, 15, 0, 0, 0, 0, 0, 0, 0, 0, 0, 0, 0, 0, 0, 0, 0, 0, 0, 0, 0, 0, 0, 0, 0, 0, 0, 0, 0, 0, 0, 0, 9, 33, 75, 134, 212, 298, 375, 432, 457, 446, 400, 332, 257, 197, 166, 173, 216, 281, 351, 407, 432, 422, 375, 302, 214, 136, 74, 30, 5, 0, 0, 0, 0, 0, 0, 0, 0, 0, 0, 0, 0, 0, 0, 0, 0, 0, 0, 0, 0, 0, 0, 0, 0, 0, 0, 0, 0, 0, 0, 1, 9, 20, 35, 49, 61, 63, 56, 42, 27, 13, 4, 9, 29, 61, 106, 165, 225, 279, 319, 338, 330, 297, 243, 178, 115, 65, 29, 7, 0, 0, 0, 0, 0, 0, 20, 61, 124, 209, 314, 412, 489, 529, 527, 484, 409, 322, 242, 186, 165, 182, 226, 284, 335, 361, 353, 313, 253, 196, 165, 179, 244, 351, 480, 604, 696, 737, 719, 646, 532, 396, 260, 153, 74, 24, 1, 0, 0, 0, 0, 0, 0, 4, 12, 24, 37, 51, 59, 58, 50, 37, 23, 11, 10, 29, 68, 125, 201, 288, 372, 442, 487, 500, 477, 421, 340, 245, 157, 88, 38, 9, 0, 0, 0, 0, 0, 0, 0, 9, 25, 48, 74, 102, 122, 130, 123, 106, 81, 54, 31, 22, 31, 63, 121, 202, 300, 403, 497, 568, 602, 592, 537, 446, 334, 219, 127, 60, 18, 0, 0, 0, 0, 0, 0, 9, 35, 81, 147, 231, 320, 394, 440, 446, 412, 346, 260, 170, 98, 46, 14, 0, 0, 0, 0, 0, 0, 11, 45, 102, 182, 285, 395, 492, 557, 581, 560, 495, 398, 286, 183, 100, 43, 10, 0, 0, 0, 0, 0, 0, 13, 44, 96, 170, 265, 364, 450, 508, 527, 504, 443, 355, 256, 162, 91, 41, 12, 0, 0, 0, 0, 0, 0, 0, 0, 0, 0, 0, 0, 0, 0, 0, 0, 0, 0, 6, 18, 35, 55, 75, 89, 91, 84, 68, 47, 29, 14, 5, 0, 0, 0, 0, 0, 0, 0, 0, 0, 0, 0, 8, 33, 77, 142, 230, 329, 424, 500, 547, 555, 524, 458, 368, 266, 171, 97, 43, 12, 0, 0, 0, 0, 0, 0, 0, 0, 0, 0, 0, 0, 0, 0, 0, 0, 0, 0, 0, 0, 0, 0, 0, 0, 0, 0, 0, 0, 0, 0, 0, 0, 0, 0, 0, 0, 0, 0, 0, 0, 0, 0, 0, 0, 0, 0, 0, 0, 0, 0, 0, 0, 0, 0, 0, 14, 55, 123, 222, 353, 495, 623, 718, 761, 743, 666, 544, 399, 258, 146, 66, 18, 0, 0, 0, 0, 2, 10, 22, 36, 52, 64, 67, 61, 47, 32, 18, 7, 1, 0, 0, 0, 0, 0, 0, 0, 0, 0, 0, 0, 0, 0, 0, 0, 0, 0, 0, 0, 0, 0, 0, 0, 11, 36, 78, 134, 207, 279, 341, 382, 396, 382, 347, 303, 265, 249, 262, 305, 369, 438, 492, 514, 498, 444, 360, 262, 168, 95, 42, 11, 0, 0, 0, 0, 0, 0, 0, 0, 20, 64, 136, 232, 349, 459, 541, 578, 565, 509, 428, 344, 280, 252, 268, 319, 391, 461, 510, 524, 499, 439, 359, 273, 194, 131, 86, 54, 33, 20, 11, 5, 20, 58, 119, 201, 302, 400, 478, 521, 520, 477, 403, 317, 243, 198, 194, 230, 294, 365, 423, 449, 434, 383, 311, 238, 187, 175, 205, 272, 359, 441, 498, 514, 483, 411, 315, 211, 125, 61, 21, 2, 0, 0, 0, 0, 0, 2, 26, 74, 147, 242, 353, 454, 526, 556, 541, 487, 407, 325, 261, 234, 251, 308, 387, 465, 520, 537, 509, 443, 349, 247, 154, 84, 36, 9, 0, 0, 0, 0, 0, 4, 26, 70, 135, 223, 325, 420, 489, 520, 506, 452, 373, 289, 220, 181, 179, 210, 262, 320, 365, 385, 371, 326, 257, 179, 109, 56, 21, 3, 0, 0, 0, 0, 0, 0, 0, 0, 0, 0, 0, 0, 0, 0, 0, 0, 0, 0, 0, 0, 0, 0, 0, 0, 0, 0, 0, 0, 0, 0, 0, 9, 40, 96, 180, 291, 418, 534, 621, 662, 650, 589, 495, 392, 306, 252, 243, 272, 326, 383, 424, 435, 413, 366, 313, 275, 272, 315, 401, 514, 626, 710, 743, 717, 639, 533, 431, 364, 352, 401, 496, 610, 709, 765, 759, 691, 576, 437, 296, 177, 92, 38, 9, 0, 0, 0, 0, 0, 0, 0, 0, 0, 0, 0, 0, 0, 0, 0, 0, 0, 0, 0, 0, 0, 0, 0, 0, 0, 0, 0, 0, 0, 0, 0, 0, 0, 0, 0, 0, 0, 0, 0, 0, 0, 0, 0, 0, 0, 0, 0, 0, 0, 0, 0, 0, 0, 0, 0, 0, 0, 0, 0, 0, 0, 0, 0, 9, 37, 87, 160, 252, 353, 441, 499, 516, 492, 434, 360, 290, 242, 227, 245, 286, 334, 369, 378, 354, 302, 235, 166, 109, 75, 62, 65, 75, 83, 83, 74, 60, 46, 34, 31, 37, 51, 70, 89, 103, 107, 100, 81, 57, 36, 27, 41, 88, 170, 281, 408, 531, 630, 685, 686, 636, 542, 422, 294, 183, 98, 41, 9, 0, 0, 0, 0, 0, 1, 9, 21, 37, 58, 79, 96, 105, 104, 93, 74, 54, 38, 38, 62, 119, 211, 329, 461, 583, 674, 716, 703, 642, 552, 459, 387, 355, 370, 423, 499, 575, 628, 642, 613, 547, 459, 371, 303, 265, 264, 289, 328, 364, 382, 372, 337, 280, 211, 140, 83, 41, 15, 1, 0, 0, 0, 0, 0, 0, 0, 0, 0, 0, 0, 0, 0, 0, 0, 0, 0, 0, 0, 0, 0, 0, 0, 1, 1, 1, 1, 0, 0, 0, 17, 55, 120, 213, 334, 462, 578, 662, 698, 681, 620, 533, 443, 375, 345, 358, 405, 470, 529, 562, 559, 519, 453, 381, 327, 308, 334, 400, 491, 583, 651, 677, 654, 583, 478, 356, 237, 141, 71, 27, 5, 0, 0, 0, 0, 0, 0, 0, 0, 0, 0, 0, 0, 0, 0, 0, 0, 0, 0, 0, 0, 0, 0, 0, 0, 0, 0, 0, 0, 0, 0, 0, 0, 0, 0, 0, 0, 0, 0, 0, 0, 0, 0, 0, 0, 0, 0, 0, 0, 0, 0, 0, 0, 2, 21, 58, 114, 188, 273, 350, 406, 428, 414, 366, 294, 210, 133, 72, 31, 7, 0, 0, 0, 0, 0, 0, 0, 13, 51, 120, 223, 361, 515, 661, 772, 830, 824, 757, 640, 495, 346, 214, 116, 50, 14, 0, 0, 0, 0, 0, 0, 0, 0, 0, 0, 0, 0, 0, 0, 0, 0, 0, 0, 0, 0, 0, 0, 0, 0, 0, 0, 0, 0, 0, 0, 0, 0, 0, 0, 0, 0, 0, 0, 0, 0, 0, 0, 5, 16, 31, 48, 65, 75, 77, 69, 53, 35, 21, 9, 1, 0, 0, 0, 0, 0, 0, 0, 0, 0, 0, 0, 0, 0, 0, 0, 0, 0, 0, 0, 0, 0, 0, 17, 55, 117, 205, 314, 421, 506, 553, 554, 511, 437, 355, 285, 247, 248, 289, 358, 435, 501, 537, 534, 491, 422, 346, 285, 257, 268, 311, 373, 432, 468, 470, 437, 380, 316, 266, 249, 274, 339, 431, 529, 609, 651, 642, 584, 487, 371, 252, 152, 79, 33, 7, 0, 0, 0, 0, 0, 0, 0, 7, 23, 46, 77, 113, 143, 159, 160, 143, 116, 84, 55, 36, 31, 38, 53, 72, 88, 96, 92, 77, 56, 36, 27, 41, 87, 164, 269, 388, 505, 596, 646, 646, 598, 509, 396, 275, 171, 91, 38, 8, 0, 0, 0, 0, 0, 0, 0, 0, 0, 0, 0, 0, 0, 0, 0, 0, 0, 1, 6, 15, 26, 40, 51, 57, 56, 47, 34, 21, 10, 7, 11, 21, 33, 45, 53, 54, 49, 36, 24, 13, 5, 1, 16, 47, 94, 155, 230, 302, 358, 390, 394, 372, 334, 297, 277, 287, 329, 396, 473, 539, 576, 571, 523, 440, 336, 227, 137, 70, 26, 3, 0, 0, 0, 0, 0, 0, 0, 0, 0, 0, 0, 0, 0, 0, 0, 0, 0, 0, 0, 5, 15, 30, 47, 67, 81, 86, 82, 68, 49, 31, 16, 5, 13, 44, 99, 176, 276, 380, 469, 527, 544, 522, 469, 406, 352, 326, 335, 377, 441, 507, 557, 575, 552, 490, 399, 295, 193, 112, 55, 20, 2, 0, 0, 0, 0, 0, 9, 35, 79, 140, 220, 302, 371, 415, 426, 402, 348, 275, 195, 123, 68, 30, 8, 0, 0, 0, 0, 0, 0, 0, 1, 8, 20, 35, 50, 63, 69, 64, 51, 35, 21, 9, 1, 0, 0, 0, 0, 0, 0, 0, 0, 0, 0, 0, 11, 38, 81, 140, 213, 286, 345, 382, 391, 368, 321, 253, 179, 113, 61, 25, 6, 0, 0, 0, 0, 0, 0, 13, 39, 80, 132, 195, 252, 292, 308, 298, 263, 209, 147, 92, 49, 19, 2, 0, 0, 0, 0, 0, 0, 0, 15, 42, 86, 143, 212, 273, 316, 333, 319, 279, 221, 157, 98, 54, 26, 18, 25, 39, 54, 63, 62, 52, 37, 22, 10, 2, 0, 0, 0, 0, 0, 0, 0, 0, 0, 0, 1, 21, 60, 119, 196, 288, 370, 430, 457, 447, 403, 335, 255, 177, 111, 65, 39, 32, 38, 48, 56, 58, 53, 42, 29, 20, 16, 20, 30, 44, 57, 68, 72, 70, 61, 48, 34, 24, 19, 22, 34, 52, 71, 85, 91, 86, 69, 49, 29, 14, 16, 40, 87, 153, 240, 333, 417, 478, 506, 496, 450, 380, 298, 218, 151, 101, 67, 44, 29, 18, 11, 4, 0, 0, 0, 0, 0, 0, 0, 0, 0, 0, 0, 1, 18, 54, 111, 187, 278, 365, 433, 472, 475, 444, 384, 307, 221, 141, 80, 37, 10, 0, 0, 0, 0, 0, 0, 0, 0, 0, 0, 0, 0, 0, 0, 0, 0, 0, 0, 9, 31, 69, 127, 204, 289, 370, 437, 477, 484, 458, 403, 328, 245, 163, 97, 50, 19, 2, 0, 0, 0, 0, 0, 0, 0, 0, 0, 0, 0, 0, 0, 0, 0, 0, 0, 0, 1, 9, 21, 36, 52, 66, 72, 68, 57, 40, 25, 12, 4, 0, 0, 0, 0, 0, 0, 0, 0, 0, 0, 0, 0, 0, 0, 0, 0, 0, 0, 0, 0, 0, 0, 0, 5, 20, 46, 85, 137, 196, 254, 299, 327, 332, 312, 270, 214, 154, 99, 55, 26, 8, 1, 0, 0, 0, 0, 0, 9, 38, 91, 173, 286, 419, 554, 673, 757, 790, 767, 692, 576, 439, 301, 182, 96, 39, 9, 0, 0, 0, 0, 3, 19, 50, 100, 169, 255, 342, 417, 468, 483, 461, 407, 330, 243, 161, 95, 48, 18, 3, 0, 0, 0, 0, 9, 30, 67, 120, 191, 267, 337, 391, 418, 415, 385, 338, 288, 251, 240, 262, 312, 380, 448, 499, 518, 498, 445, 372, 297, 241, 218, 232, 280, 347, 416, 471, 498, 491, 451, 386, 308, 230, 161, 110, 80, 67, 66, 69, 70, 64, 50, 35, 20, 8, 1, 0, 0, 0, 0, 0, 0, 0, 0, 0, 0, 0, 0, 0, 0, 0, 0, 0, 0, 0, 0, 0, 3, 13, 32, 62, 105, 158, 216, 269, 311, 333, 334, 310, 266, 208, 145, 90, 47, 19, 3, 0, 0, 0, 0, 0, 4, 20, 51, 98, 162, 236, 305, 360, 389, 389, 357, 302, 230, 155, 93, 46, 16, 0, 0, 0, 0, 0, 0, 0, 0, 0, 0, 0, 0, 0, 0, 0, 0, 0, 0, 0, 0, 0, 0, 0, 0, 0, 0, 0, 0, 0, 0, 0, 0, 0, 6, 27, 65, 123, 201, 291, 378, 450, 494, 501, 471, 409, 325, 234, 148, 83, 38, 11, 0, 0, 0, 0, 0, 0, 0, 0, 0, 0, 0, 0, 0, 0, 0, 0, 0, 0, 0, 3, 11, 23, 37, 53, 67, 73, 71, 62, 49, 37, 32, 42, 71, 122, 193, 278, 366, 445, 501, 524, 511, 463, 387, 295, 202, 123, 65, 26, 6, 0, 0, 0, 0, 0, 0, 0, 0, 0, 0, 0, 0, 0, 0, 0, 0, 2, 13, 37, 78, 143, 231, 335, 442, 538, 602, 625, 603, 543, 464, 390, 340, 330, 362, 424, 501, 567, 604, 602, 561, 490, 410, 337, 290, 277, 300, 347, 407, 459, 490, 488, 453, 389, 308, 220, 139, 78, 36, 10, 0, 0, 0, 0, 0, 0, 3, 9, 18, 30, 42, 51, 55, 51, 40, 29, 17, 8, 2, 0, 0, 0, 0, 0, 0, 0, 0, 0, 0, 0, 8, 28, 63, 113, 179, 251, 316, 363, 382, 369, 326, 261, 186, 117, 63, 27, 6, 0, 0, 0, 0, 0, 0, 0, 0, 0, 0, 6, 16, 30, 43, 56, 60, 55, 43, 29, 15, 5, 0, 0, 0, 0, 0, 0, 0, 0, 0, 0, 0, 0, 0, 0, 0, 0, 0, 0, 0, 0, 0, 0, 0, 0, 2, 11, 24, 38, 53, 65, 68, 61, 50, 35, 23, 21, 36, 69, 122, 191, 264, 333, 387, 414, 413, 386, 340, 284, 229, 181, 146, 124, 111, 104, 98, 90, 77, 61, 46, 39, 47, 78, 139, 228, 338, 453, 556, 627, 656, 637, 576, 483, 374, 264, 165, 92, 42, 13, 0, 0, 0, 0, 0, 0, 0, 0, 0, 0, 0, 0, 0, 0, 0, 0, 7, 25, 58, 110, 182, 268, 358, 439, 497, 523, 511, 464, 390, 300, 209, 129, 70, 31, 8, 0, 0, 0, 0, 0, 0, 4, 22, 52, 97, 153, 217, 272, 312, 328, 320, 287, 238, 180, 121, 72, 37, 14, 2, 0, 0, 0, 0, 0, 8, 29, 65, 117, 188, 266, 340, 400, 436, 443, 417, 365, 293, 212, 136, 77, 35, 9, 0, 0, 0, 0, 0, 0, 5, 23, 54, 98, 154, 213, 265, 301, 315, 304, 272, 224, 166, 108, 63, 30, 9, 0, 0, 0, 0, 0, 0, 0, 5, 22, 52, 96, 153, 217, 274, 316, 335, 328, 297, 246, 185, 122, 73, 36, 12, 0, 0, 0, 0, 0, 0, 0, 5, 24, 58, 108, 175, 253, 325, 381, 409, 406, 373, 319, 261, 213, 186, 188, 217, 265, 318, 365, 392, 391, 361, 306, 233, 156, 93, 45, 14, 0, 0, 0, 0, 0, 0, 0, 0, 0, 0, 0, 0, 0, 0, 0, 0, 0, 0, 0, 0, 0, 0, 0, 0, 0, 0, 0, 0, 0, 0, 0, 0, 0, 0, 0, 0, 0, 0, 0, 0, 0, 0, 0, 0, 0, 0, 0, 0, 0, 0, 0, 0, 0, 0, 0, 0, 0, 0, 8, 33, 78, 145, 238, 347, 456, 552, 619, 647, 629, 570, 479, 371, 262, 166, 93, 44, 16, 2, 0, 0, 0, 0, 6, 26, 66, 127, 211, 312, 414, 503, 566, 590, 575, 521, 439, 341, 241, 151, 85, 39, 12, 0, 0, 0, 0, 5, 22, 50, 92, 150, 216, 282, 338, 378, 393, 380, 340, 279, 206, 134, 77, 36, 10, 0, 0, 0, 0, 0, 0, 0, 0, 0, 0, 0, 0, 0, 0, 0, 0, 0, 0, 1, 6, 13, 23, 35, 47, 57, 64, 67, 65, 58, 50, 42, 38, 44, 63, 100, 152, 220, 293, 365, 422, 457, 462, 437, 389, 327, 267, 220, 200, 206, 238, 285, 335, 374, 392, 383, 348, 293, 225, 156, 96, 51, 21, 5, 0, 0, 0, 0, 0, 0, 0, 0, 0, 0, 0, 0, 0, 0, 0, 0, 0, 0, 0, 0, 0, 0, 0, 0, 0, 0, 0, 0, 0, 7, 28, 62, 110, 170, 233, 290, 330, 351, 349, 326, 288, 243, 202, 174, 167, 181, 211, 247, 279, 296, 294, 272, 234, 185, 132, 84, 48, 22, 6, 0, 0, 0, 0, 0, 0, 0, 1, 5, 12, 21, 33, 43, 50, 52, 49, 42, 36, 32, 38, 55, 86, 128, 179, 230, 273, 299, 306, 290, 256, 207, 152, 99, 58, 27, 8, 0, 0, 0, 0, 0, 0, 0, 0, 2, 6, 10, 15, 20, 20, 17, 13, 8, 3, 0, 0, 0, 0, 0, 0, 0, 0, 0, 0, 0, 0, 0, 1, 4, 8, 13, 17, 19, 18, 15, 10, 6, 2, 0, 0, 0, 0, 0, 0, 0, 0, 0, 0, 0, 0, 0, 0, 0, 0, 0, 0, 0, 0, 0, 0, 0, 0, 0, 0, 1, 16, 46, 91, 154, 232, 311, 380, 430, 451, 443, 406, 349, 281, 214, 157, 113, 83, 64, 51, 39, 28, 18, 10, 3, 0, 0, 0, 0, 0, 0, 0, 0, 0, 0, 0, 14, 42, 85, 144, 221, 298, 365, 411, 431, 419, 378, 315, 239, 161, 98, 50, 19, 2, 0, 0, 0, 0, 0, 1, 13, 35, 68, 110, 160, 207, 242, 260, 258, 234, 193, 141, 91, 51, 22, 5, 0, 0, 0, 0, 0, 0, 0, 6, 24, 56, 101, 161, 227, 288, 334, 357, 353, 325, 282, 232, 190, 163, 156, 164, 184, 206, 224, 231, 221, 195, 156, 110, 68, 35, 17, 12, 20, 28, 36, 38, 34, 25, 16, 12, 18, 38, 72, 117, 167, 212, 244, 259, 253, 231, 199, 169, 146, 136, 142, 159, 181, 203, 217, 219, 207, 180, 141, 97, 60, 30, 9, 0, 0, 0, 0, 0, 0, 0, 0, 0, 0, 0, 0, 2, 7, 13, 20, 27, 31, 29, 26, 25, 33, 56, 99, 160, 233, 307, 370, 412, 424, 406, 363, 305, 245, 196, 168, 167, 190, 230, 275, 314, 335, 333, 307, 261, 204, 141, 88, 47, 20, 3, 0, 0, 0, 0, 0, 0, 0, 0, 0, 0, 1, 3, 5, 5, 5, 5, 3, 3, 11, 30, 60, 103, 157, 214, 269, 314, 342, 349, 333, 291, 230, 160, 100, 51, 17, 0, 0, 0, 0, 0, 0, 0, 0, 0, 0, 1, 4, 9, 13, 16, 16, 13, 10, 5, 3, 12, 34, 72, 129, 203, 284, 362, 424, 460, 464, 435, 381, 309, 229, 151, 90, 46, 16, 1, 0, 0, 0, 0, 0, 0, 9, 29, 59, 98, 145, 188, 218, 230, 223, 199, 163, 124, 86, 56, 36, 24, 21, 21, 22, 22, 19, 16, 17, 26, 46, 77, 117, 161, 203, 235, 253, 255, 241, 210, 169, 124, 80, 45, 21, 6, 0, 0, 0, 0, 0, 0, 0, 0, 0, 0, 0, 0, 0, 0, 0, 0, 0, 0, 0, 0, 0, 10, 32, 65, 109, 163, 213, 249, 267, 266, 246, 217, 186, 163, 154, 162, 183, 212, 240, 259, 265, 257, 237, 213, 193, 184, 192, 218, 260, 309, 354, 386, 395, 378, 338, 280, 217, 156, 107, 70, 47, 36, 31, 27, 25, 23, 24, 32, 51, 83, 129, 188, 252, 314, 363, 390, 388, 359, 306, 238, 167, 103, 56, 25, 7, 0, 0, 0, 0, 0, 0, 0, 0, 0, 0, 0, 0, 0, 0, 0, 0, 0, 0, 0, 7, 24, 55, 102, 165, 236, 306, 364, 401, 411, 393, 352, 295, 232, 174, 127, 96, 79, 73, 71, 70, 67, 62, 60, 64, 78, 103, 140, 185, 232, 275, 306, 319, 310, 280, 232, 176, 118, 70, 35, 13, 1, 0, 0, 0, 0, 0, 0, 0, 0, 0, 0, 0, 0, 0, 0, 0, 0, 0, 0, 9, 29, 61, 104, 158, 210, 252, 277, 282, 268, 238, 199, 159, 124, 97, 80, 73, 70, 68, 65, 59, 53, 49, 51, 64, 89, 127, 175, 228, 279, 322, 347, 352, 336, 301, 251, 197, 145, 103, 74, 60, 56, 57, 58, 55, 45, 32, 20, 9, 2, 0, 0, 0, 0, 0, 0, 0, 0, 0, 0, 0, 0, 0, 0, 0, 0, 0, 0, 0, 0, 0, 0, 0, 0, 0, 0, 0, 0, 0, 0, 0, 0, 0, 0, 0, 0, 0, 0, 0, 0, 0, 0, 0, 0, 0, 0, 0, 0, 3, 13, 34, 65, 110, 164, 221, 272, 312, 335, 336, 316, 278, 227, 168, 110, 64, 31, 9, 0, 0, 0, 0, 0, 0, 0, 0, 0, 0, 0, 0, 0, 0, 0, 0, 0, 0, 0, 0, 0, 0, 0, 0, 0, 0, 0, 0, 0, 0, 0, 0, 0, 0, 0, 0, 0, 0, 0, 0, 0, 0, 0, 0, 0, 0, 0, 0, 0, 0, 0, 0, 1, 10, 30, 62, 109, 173, 244, 314, 375, 416, 433, 421, 384, 328, 263, 194, 132, 80, 43, 18, 5, 0, 0, 0, 3, 14, 32, 60, 98, 143, 189, 231, 262, 278, 277, 259, 227, 186, 140, 94, 57, 30, 11, 1, 0, 0, 0, 0, 0, 0, 0, 0, 0, 0, 0, 0, 0, 0, 0, 0, 4, 18, 44, 82, 132, 191, 249, 299, 332, 345, 336, 307, 264, 215, 168, 129, 102, 85, 77, 72, 69, 64, 57, 53, 55, 68, 92, 130, 175, 222, 265, 295, 310, 307, 287, 254, 213, 169, 128, 95, 69, 51, 39, 29, 21, 14, 7, 3, 0, 0, 0, 0, 0, 0, 0, 0, 0, 0, 3, 12, 31, 60, 102, 151, 203, 250, 285, 305, 307, 290, 259, 216, 165, 112, 69, 36, 13, 1, 0, 0, 0, 0, 0, 0, 0, 0, 0, 0, 0, 0, 0, 0, 0, 0, 0, 4, 14, 33, 61, 100, 146, 197, 249, 297, 337, 363, 371, 356, 320, 268, 206, 143, 88, 48, 21, 5, 0, 0, 0, 0, 0, 0, 0, 0, 0, 0, 0, 0, 0, 0, 0, 0, 0, 1, 5, 8, 12, 17, 20, 21, 19, 15, 11, 7, 3, 0, 0, 0, 0, 0, 0, 0, 0, 0, 0, 0, 0, 0, 1, 9, 25, 52, 89, 137, 186, 232, 267, 290, 296, 289, 272, 252, 235, 226, 227, 240, 261, 285, 305, 315, 310, 291, 256, 212, 161, 112, 69, 38, 16, 4, 0, 0, 0, 0, 2, 14, 38, 75, 128, 196, 268, 338, 397, 436, 454, 451, 431, 404, 379, 365, 364, 379, 404, 430, 448, 452, 439, 407, 363, 316, 274, 244, 231, 236, 255, 282, 306, 322, 324, 312, 290, 267, 251, 247, 260, 285, 319, 352, 380, 393, 389, 366, 326, 274, 217, 160, 109, 67, 37, 17, 6, 0, 0, 0, 0, 0, 0, 0, 0, 0, 0, 0, 0, 0, 0, 0, 0, 0, 0, 0, 0, 0, 0, 0, 0, 0, 0, 0, 12, 33, 65, 107, 157, 203, 240, 263, 270, 260, 237, 201, 159, 114, 73, 41, 18, 5, 0, 0, 0, 0, 0, 0, 0, 0, 1, 5, 11, 18, 24, 28, 27, 23, 17, 12, 9, 10, 14, 20, 24, 27, 29, 29, 27, 25, 21, 17, 13, 12, 18, 32, 55, 85, 119, 152, 180, 196, 200, 190, 167, 135, 96, 61, 34, 14, 2, 0, 0, 0, 0, 0, 4, 19, 43, 75, 115, 158, 195, 220, 232, 231, 218, 200, 182, 172, 173, 187, 213, 245, 274, 294, 300, 291, 269, 240, 212, 190, 180, 182, 196, 217, 238, 255, 260, 252, 227, 190, 144, 97, 58, 29, 9, 0, 0, 0, 0, 0, 0, 0, 0, 0, 2, 7, 13, 20, 26, 28, 26, 20, 16, 15, 23, 42, 72, 113, 160, 208, 250, 281, 298, 298, 283, 256, 219, 181, 145, 114, 94, 81, 76, 74, 75, 75, 76, 81, 93, 115, 148, 190, 236, 279, 311, 325, 320, 298, 263, 221, 177, 137, 102, 74, 52, 36, 25, 18, 12, 7, 3, 1, 0, 0, 0, 0, 0, 0, 0, 0, 0, 0, 0, 9, 26, 54, 92, 141, 191, 238, 273, 296, 304, 301, 288, 274, 261, 256, 259, 272, 290, 309, 323, 326, 314, 288, 249, 199, 146, 96, 56, 28, 10, 1, 0, 0, 0, 0, 7, 23, 49, 85, 132, 183, 230, 269, 295, 305, 299, 281, 254, 227, 204, 191, 191, 202, 221, 243, 263, 274, 272, 254, 221, 177, 126, 80, 44, 19, 4, 0, 0, 0, 0, 0, 0, 0, 0, 0, 0, 3, 6, 9, 11, 11, 9, 6, 3, 0, 0, 2, 4, 6, 7, 7, 6, 4, 2, 0, 0, 0, 0, 0, 0, 0, 0, 0, 0, 0, 0, 0, 0, 0, 0, 0, 0, 0, 0, 0, 0, 0, 0, 0, 0, 0, 1, 4, 7, 11, 13, 12, 10, 7, 3, 0, 0, 0, 4, 17, 40, 74, 118, 170, 220, 263, 295, 311, 310, 289, 252, 201, 145, 93, 52, 22, 5, 0, 0, 0, 0, 0, 0, 0, 0, 0, 0, 0, 0, 0, 0, 0, 0, 5, 15, 32, 56, 87, 121, 153, 179, 196, 200, 192, 170, 139, 102, 67, 38, 17, 4, 0, 0, 0, 0, 0, 0, 0, 0, 0, 0, 0, 0, 0, 0, 0, 0, 0, 0, 3, 13, 31, 55, 86, 121, 151, 176, 191, 197, 193, 182, 167, 154, 148, 150, 162, 180, 201, 219, 230, 231, 222, 204, 176, 141, 102, 66, 38, 17, 4, 0, 0, 0, 0, 6, 20, 43, 76, 120, 171, 221, 265, 296, 308, 299, 271, 230, 181, 133, 88, 53, 29, 12, 3, 0, 0, 0, 0, 4, 13, 29, 51, 79, 110, 138, 162, 178, 186, 183, 171, 150, 124, 97, 75, 60, 52, 49, 49, 46, 39, 30, 21, 19, 28, 51, 89, 141, 201, 263, 319, 360, 381, 381, 364, 335, 301, 271, 246, 229, 219, 217, 219, 226, 234, 237, 232, 217, 191, 156, 118, 80, 49, 26, 11, 2, 0, 0, 1, 8, 22, 43, 74, 114, 158, 202, 240, 268, 280, 276, 256, 223, 183, 141, 103, 71, 48, 30, 18, 10, 5, 1, 0, 0, 0, 0, 0, 0, 0, 0, 0, 0, 0, 0, 2, 14, 33, 63, 103, 149, 194, 232, 257, 265, 257, 231, 195, 155, 120, 91, 72, 61, 54, 48, 42, 37, 33, 30, 29, 32, 40, 54, 77, 111, 154, 203, 254, 299, 333, 352, 354, 342, 321, 300, 285, 279, 284, 294, 304, 307, 301, 286, 263, 238, 216, 201, 193, 194, 203, 217, 233, 246, 253, 248, 232, 202, 162, 118, 76, 43, 20, 5, 0, 0, 0, 0, 0, 0, 0, 0, 0, 0, 0, 0, 0, 0, 0, 0, 0, 0, 0, 0, 0, 0, 0, 0, 0, 0, 0, 0, 0, 0, 0, 0, 0, 0, 0, 0, 0, 0, 0, 0, 0, 0, 0, 1, 4, 7, 10, 14, 16, 16, 14, 12, 10, 7, 5, 6, 7, 9, 11, 12, 12, 9, 7, 4, 1, 0, 0, 0, 0, 0, 0, 0, 0, 0, 0, 0, 0, 0, 2, 5, 9, 11, 13, 11, 9, 5, 2, 0, 0, 0, 0, 0, 0, 0, 0, 0, 0, 4, 11, 23, 38, 59, 82, 106, 131, 155, 177, 195, 207, 210, 203, 187, 163, 133, 100, 70, 43, 23, 10, 2, 0, 0, 0, 0, 0, 0, 0, 0, 0, 0, 0, 0, 0, 0, 0, 0, 0, 0, 0, 0, 0, 0, 0, 0, 0, 0, 0, 0, 0, 0, 0, 0, 0, 0, 0, 0, 0, 0, 0, 0, 0, 0, 0, 0, 0, 0, 0, 0, 0, 0, 0, 0, 1, 4, 7, 11, 15, 18, 18, 16, 12, 8, 4, 2, 0, 0, 0, 0, 0, 0, 0, 0, 0, 0, 0, 0, 0, 0, 0, 0, 0, 0, 0, 0, 0, 0, 0, 3, 11, 25, 44, 69, 98, 126, 153, 177, 197, 212, 224, 231, 236, 240, 246, 255, 269, 287, 306, 322, 331, 331, 318, 294, 261, 220, 176, 134, 94, 59, 34, 17, 5, 0, 2, 7, 12, 19, 26, 32, 35, 37, 37, 35, 31, 25, 18, 11, 5, 1, 0, 0, 0, 0, 0, 0, 0, 0, 0, 0, 0, 0, 0, 0, 0, 0, 0, 0, 0, 0, 0, 0, 3, 7, 13, 20, 28, 33, 37, 37, 36, 33, 29, 26, 27, 33, 47, 70, 101, 136, 167, 192, 205, 205, 195, 177, 153, 126, 98, 70, 45, 26, 12, 3, 0, 0, 6, 20, 42, 71, 109, 149, 189, 228, 263, 292, 311, 317, 306, 279, 240, 193, 143, 96, 58, 31, 13, 3, 0, 0, 0, 0, 0, 0, 0, 0, 0, 0, 0, 0, 0, 0, 4, 15, 32, 59, 94, 134, 172, 205, 229, 243, 247, 245, 239, 230, 226, 225, 230, 239, 251, 259, 260, 251, 231, 200, 164, 126, 90, 58, 34, 18, 8, 2, 0, 0, 0, 0, 0, 0, 0, 1, 4, 7, 10, 12, 11, 9, 6, 3, 0, 0, 0, 0, 0, 0, 0, 0, 0, 0, 0, 0, 0, 0, 1, 5, 8, 11, 13, 12, 10, 6, 3, 0, 0, 0, 0, 0, 0, 0, 0, 0, 0, 0, 0, 0, 0, 0, 0, 0, 0, 0, 0, 0, 0, 0, 0, 0, 4, 15, 32, 55, 82, 110, 136, 155, 169, 176, 175, 163, 144, 117, 87, 57, 33, 16, 6, 0, 0, 0, 6, 20, 41, 69, 105, 142, 176, 206, 226, 236, 235, 223, 199, 167, 129, 89, 56, 30, 12, 1, 0, 0, 0, 0, 0, 0, 0, 5, 12, 20, 28, 34, 34, 29, 22, 15, 13, 18, 31, 51, 76, 105, 133, 159, 180, 192, 193, 184, 164, 137, 105, 72, 45, 24, 9, 1, 0, 0, 0, 0, 0, 4, 15, 30, 52, 81, 115, 150, 186, 218, 243, 256, 253, 235, 204, 163, 118, 76, 44, 21, 6, 0, 0, 0, 0, 0, 0, 0, 0, 0, 1, 1, 1, 1, 0, 0, 0, 0, 0, 2, 4, 6, 9, 11, 11, 10, 8, 7, 7, 9, 12, 15, 19, 24, 28, 31, 33, 34, 32, 29, 27, 26, 29, 38, 53, 75, 103, 133, 161, 184, 197, 201, 195, 183, 167, 148, 127, 104, 79, 54, 33, 17, 7, 1, 0, 0, 0, 0, 0, 0, 0, 0, 0, 0, 0, 0, 0, 0, 0, 0, 0, 0, 0, 0, 0, 0, 0, 0, 3, 12, 25, 43, 67, 93, 119, 144, 167, 185, 198, 204, 203, 196, 186, 177, 171, 172, 179, 193, 208, 222, 231, 234, 229, 218, 203, 191, 183, 182, 187, 198, 210, 217, 215, 205, 183, 152, 115, 77, 47, 24, 8, 0, 0, 0, 0, 0, 0, 0, 0, 0, 0, 0, 0, 0, 0, 0, 0, 1, 7, 17, 32, 53, 82, 115, 152, 188, 222, 247, 261, 263, 255, 240, 224, 209, 199, 193, 191, 194, 198, 201, 202, 197, 185, 167, 144, 118, 94, 73, 57, 45, 38, 36, 37, 43, 55, 75, 101, 133, 170, 207, 241, 273, 297, 315, 324, 323, 307, 278, 234, 181, 126, 78, 41, 17, 4, 0, 0, 1, 7, 20, 38, 65, 96, 128, 155, 177, 191, 195, 190, 179, 164, 147, 128, 111, 95, 78, 61, 45, 31, 19, 12, 11, 13, 16, 18, 20, 20, 20, 18, 18, 19, 21, 26, 33, 43, 56, 70, 86, 103, 120, 135, 147, 156, 158, 154, 145, 132, 117, 101, 86, 72, 60, 50, 41, 33, 27, 20, 14, 9, 5, 1, 0, 0, 0, 0, 0, 0, 0, 0, 0, 0, 0, 0, 0, 0, 0, 0, 0, 0, 0, 0, 0, 0, 0, 0, 0, 0, 0, 0, 0, 0, 0, 0, 3, 10, 23, 42, 67, 96, 125, 151, 168, 178, 177, 166, 148, 125, 97, 69, 44, 26, 11, 3, 0, 0, 0, 0, 0, 0, 0, 0, 0, 0, 0, 0, 0, 0, 0, 2, 8, 18, 35, 59, 89, 120, 151, 177, 195, 204, 206, 202, 197, 192, 191, 195, 204, 216, 229, 241, 248, 249, 245, 238, 232, 230, 235, 246, 261, 277, 291, 299, 301, 296, 286, 275, 265, 260, 259, 263, 268, 272, 273, 269, 260, 248, 235, 222, 213, 211, 216, 228, 243, 257, 266, 265, 252, 231, 202, 169, 135, 101, 69, 43, 23, 10, 2, 0, 0, 0, 0, 0, 0, 0, 0, 0, 0, 0, 0, 0, 0, 0, 0, 0, 0, 2, 3, 6, 9, 12, 14, 14, 11, 8, 5, 3, 4, 7, 12, 17, 22, 25, 27, 28, 31, 37, 45, 56, 72, 90, 110, 128, 144, 154, 159, 156, 148, 135, 120, 102, 85, 68, 53, 39, 27, 17, 10, 5, 1, 0, 0, 0, 0, 0, 0, 0, 0, 0, 0, 0, 0, 0, 5, 18, 36, 61, 92, 123, 149, 169, 179, 181, 172, 156, 132, 103, 72, 46, 25, 9, 1, 0, 0, 0, 0, 0, 0, 0, 0, 0, 0, 0, 0, 0, 0, 0, 0, 0, 0, 0, 0, 0, 0, 0, 0, 0, 0, 0, 0, 0, 0, 7, 21, 42, 69, 102, 134, 163, 186, 203, 217, 226, 231, 233, 233, 232, 229, 227, 226, 226, 226, 228, 230, 231, 231, 232, 233, 234, 237, 239, 242, 242, 240, 233, 219, 198, 169, 135, 98, 63, 36, 17, 5, 0, 0, 0, 0, 1, 8, 20, 37, 61, 91, 124, 155, 184, 208, 227, 239, 246, 249, 251, 252, 254, 258, 263, 267, 268, 267, 262, 255, 249, 245, 244, 246, 252, 260, 267, 273, 274, 270, 259, 240, 214, 185, 154, 125, 97, 72, 50, 31, 18, 8, 2, 0, 0, 0, 0, 0, 0, 0, 0, 0, 0, 0, 0, 0, 0, 0, 0, 0, 0, 0, 0, 0, 0, 0, 0, 0, 6, 17, 34, 55, 80, 103, 121, 133, 138, 137, 130, 120, 106, 90, 72, 53, 35, 20, 10, 3, 0, 0, 0, 0, 0, 0, 0, 0, 0, 0, 0, 0, 0, 0, 0, 0, 0, 6, 19, 35, 55, 77, 97, 111, 119, 122, 117, 106, 88, 66, 44, 25, 11, 2, 0, 0, 0, 0, 0, 1, 7, 17, 32, 53, 78, 104, 129, 150, 165, 172, 174, 173, 171, 172, 177, 184, 192, 195, 193, 186, 174, 158, 141, 122, 100, 77, 53, 32, 17, 6, 0, 0, 0, 1, 7, 16, 30, 48, 68, 86, 102, 115, 124, 128, 128, 124, 115, 101, 85, 68, 50, 33, 20, 10, 4, 0, 0, 0, 0, 4, 15, 31, 54, 85, 118, 151, 181, 206, 221, 227, 221, 205, 178, 146, 111, 79, 51, 30, 15, 7, 2, 0, 3, 10, 23, 41, 66, 95, 126, 157, 184, 203, 213, 213, 202, 182, 156, 127, 98, 69, 44, 25, 13, 4, 2, 5, 12, 23, 38, 57, 79, 101, 124, 143, 156, 162, 157, 144, 122, 96, 67, 42, 23, 10, 2, 0, 0, 0, 3, 13, 28, 48, 71, 97, 121, 142, 160, 175, 183, 185, 181, 173, 163, 156, 151, 151, 154, 158, 161, 161, 157, 149, 137, 121, 103, 83, 62, 41, 25, 13, 4, 0, 0, 0, 0, 0, 0, 0, 0, 0, 0, 0, 0, 0, 0, 0, 0, 9, 25, 47, 73, 102, 124, 139, 147, 148, 146, 139, 124, 102, 76, 50, 27, 10, 1, 0, 0, 0, 0, 0, 0, 0, 0, 5, 14, 27, 42, 62, 79, 91, 97, 98, 91, 78, 60, 40, 24, 11, 3, 0, 0, 0, 0, 0, 0, 0, 0, 0, 0, 0, 0, 0, 0, 0, 0, 0, 0, 0, 0, 0, 0, 0, 0, 0, 0, 0, 0, 0, 0, 0, 0, 0, 0, 0, 0, 0, 0, 0, 0, 0, 0, 0, 0, 0, 0, 0, 0, 0, 0, 0, 0, 0, 0, 0, 0, 0, 0, 0, 0, 0, 0, 0, 3, 11, 23, 39, 59, 81, 102, 121, 140, 157, 172, 186, 200, 209, 215, 216, 214, 210, 204, 201, 200, 200, 200, 198, 192, 184, 174, 162, 149, 133, 115, 96, 75, 55, 37, 22, 12, 5, 1, 0, 0, 0, 0, 0, 0, 0, 0, 0, 0, 0, 0, 0, 0, 0, 0, 0, 0, 0, 0, 0, 0, 0, 0, 0, 0, 0, 0, 0, 0, 0, 0, 0, 0, 3, 8, 14, 20, 27, 32, 34, 35, 35, 36, 37, 40, 44, 48, 50, 52, 52, 52, 52, 54, 58, 62, 67, 71, 73, 77, 84, 95, 110, 130, 151, 169, 184, 194, 200, 204, 206, 209, 213, 217, 219, 219, 215, 212, 208, 209, 211, 217, 222, 227, 228, 231, 237, 246, 259, 273, 282, 283, 274, 256, 232, 203, 175, 144, 113, 84, 57, 34, 17, 7, 1, 0, 0, 0, 0, 0, 0, 0, 0, 0, 0, 0, 0, 0, 0, 0, 0, 0, 0, 0, 0, 0, 0, 0, 0, 0, 0, 0, 0, 2, 4, 6, 9, 13, 16, 21, 30, 41, 57, 75, 96, 116, 135, 155, 173, 190, 205, 215, 218, 213, 201, 184, 166, 146, 127, 110, 94, 78, 66, 57, 53, 56, 64, 75, 89, 105, 121, 139, 158, 176, 191, 201, 205, 202, 195, 186, 181, 180, 185, 193, 203, 212, 216, 213, 204, 188, 168, 145, 123, 103, 87, 75, 65, 59, 54, 50, 47, 46, 45, 45, 46, 48, 51, 54, 57, 61, 67, 76, 90, 108, 129, 149, 169, 186, 203, 218, 236, 252, 265, 271, 270, 264, 257, 254, 256, 264, 278, 292, 303, 312, 315, 316, 315, 311, 306, 298, 287, 275, 260, 247, 239, 234, 230, 225, 216, 197, 172, 142, 111, 83, 59, 41, 27, 17, 10, 4, 1, 0, 0, 0, 0, 0, 0, 0, 0, 0, 0, 0, 0, 0, 0, 0, 0, 0, 2, 6, 11, 16, 22, 26, 27, 26, 26, 26, 27, 29, 32, 35, 36, 36, 35, 34, 34, 35, 36, 37, 38, 37, 36, 32, 29, 27, 25, 24, 23, 22, 20, 16, 12, 7, 4, 1, 0, 0, 0, 0, 0, 0, 0, 0, 0, 0, 0, 0, 0, 0, 0, 0, 0, 0, 0, 0, 0, 0, 0, 0, 0, 0, 0, 0, 0, 0, 0, 0, 0, 0, 0, 0, 0, 0, 0, 0, 0, 0, 0, 0, 0, 0, 0, 0, 0, 0, 0, 0, 0, 0, 0, 3, 6, 10, 14, 19, 24, 31, 42, 57, 75, 94, 112, 128, 143, 158, 174, 190, 205, 215, 216, 208, 190, 165, 136, 107, 82, 61, 44, 31, 21, 13, 8, 5, 3, 3, 4, 5, 6, 8, 12, 18, 27, 37, 49, 63, 77, 95, 115, 138, 162, 187, 210, 232, 251, 265, 273, 273, 266, 251, 232, 209, 183, 157, 132, 108, 88, 72, 62, 58, 61, 70, 86, 106, 131, 155, 177, 195, 208, 215, 216, 214, 207, 196, 180, 162, 140, 117, 96, 78, 64, 54, 49, 49, 53, 62, 74, 88, 105, 120, 136, 150, 163, 172, 179, 184, 185, 184, 182, 181, 181, 182, 181, 178, 171, 159, 141, 121, 98, 76, 54, 35, 21, 11, 4, 0, 0, 0, 0, 0, 0, 0, 0, 0, 0, 0, 0, 0, 0, 0, 1, 4, 7, 9, 10, 9, 7, 4, 1, 0, 0, 0, 0, 0, 0, 0, 0, 0, 0, 0, 0, 0, 0, 0, 0, 0, 0, 0, 0, 0, 0, 0, 2, 2, 3, 4, 6, 8, 12, 16, 17, 16, 13, 9, 5, 1, 0, 3, 6, 9, 12, 14, 12, 9, 6, 3, 0, 0, 0, 0, 0, 0, 0, 0, 0, 0, 0, 0, 0, 1, 4, 8, 12, 20, 31, 45, 63, 85, 109, 134, 158, 180, 200, 218, 233, 246, 256, 262, 265, 265, 263, 261, 258, 254, 251, 249, 245, 240, 235, 230, 224, 220, 218, 216, 214, 210, 203, 192, 177, 161, 144, 128, 110, 94, 78, 62, 47, 37, 28, 21, 16, 11, 7, 3, 1, 0, 0, 0, 0, 0, 0, 0, 0, 0, 0, 0, 0, 0, 0, 0, 0, 0, 1, 5, 9, 14, 18, 22, 24, 24, 24, 26, 30, 38, 48, 62, 77, 92, 104, 115, 123, 130, 135, 139, 142, 144, 143, 140, 136, 127, 113, 96, 75, 51, 32, 16, 6, 0, 0, 0, 0, 0, 0, 0, 0, 0, 0, 0, 0, 0, 0, 0, 0, 0, 0, 0, 0, 0, 0, 0, 0, 0, 2, 8, 18, 32, 50, 70, 90, 109, 126, 141, 153, 162, 170, 177, 182, 186, 188, 188, 186, 184, 183, 184, 188, 193, 199, 201, 198, 191, 179, 167, 157, 152, 149, 149, 147, 141, 129, 110, 88, 63, 40, 23, 10, 3, 0, 0, 0, 0, 0, 0, 0, 0, 0, 0, 0, 0, 0, 0, 2, 9, 19, 33, 50, 67, 84, 99, 111, 122, 129, 132, 129, 121, 107, 90, 70, 51, 33, 20, 10, 4, 0, 0, 0, 0, 0, 0, 0, 0, 0, 0, 0, 0, 0, 0, 1, 5, 12, 19, 29, 40, 51, 62, 74, 86, 100, 113, 124, 135, 145, 154, 161, 167, 170, 172, 173, 173, 176, 178, 182, 185, 187, 188, 189, 189, 192, 195, 199, 202, 203, 200, 193, 180, 161, 139, 116, 94, 73, 56, 41, 27, 16, 8, 3, 0, 0, 0, 0, 0, 0, 0, 0, 0, 0, 4, 11, 21, 34, 49, 66, 81, 94, 103, 108, 107, 103, 96, 88, 78, 68, 56, 41, 28, 16, 7, 1, 0, 0, 0, 0, 0, 0, 0, 2, 4, 8, 13, 18, 23, 29, 35, 44, 55, 70, 85, 100, 113, 121, 123, 123, 122, 121, 123, 128, 134, 139, 142, 142, 138, 132, 124, 114, 103, 92, 79, 67, 57, 48, 43, 39, 37, 36, 35, 34, 35, 38, 45, 56, 70, 89, 108, 125, 138, 146, 146, 140, 131, 119, 106, 93, 79, 65, 50, 35, 22, 12, 5, 1, 1, 5, 13, 25, 41, 60, 81, 98, 113, 123, 127, 126, 122, 115, 106, 96, 84, 71, 57, 44, 32, 21, 12, 7, 3, 0, 0, 0, 0, 0, 0, 0, 0, 0, 0, 0, 0, 0, 0, 0, 0, 0, 0, 4, 9, 17, 27, 39, 51, 63, 74, 86, 97, 108, 120, 130, 137, 140, 137, 130, 118, 106, 94, 85, 78, 72, 65, 57, 49, 43, 40, 42, 49, 60, 72, 82, 92, 98, 102, 103, 103, 100, 95, 89, 83, 76, 67, 60, 52, 44, 38, 34, 33, 34, 39, 47, 57, 70, 83, 93, 101, 104, 101, 93, 85, 76, 69, 63, 57, 51, 43, 34, 23, 14, 7, 3, 0, 0, 0, 0, 0, 0, 0, 0, 0, 0, 0, 0, 0, 0, 0, 0, 0, 0, 0, 0, 0, 0, 0, 0, 0, 0, 0, 0, 0, 0, 0, 0, 0, 0, 0, 0, 0, 0, 0, 0, 2, 8, 16, 27, 43, 60, 77, 93, 106, 115, 118, 116, 109, 100, 87, 72, 57, 43, 29, 17, 9, 4, 0, 0, 0, 0, 0, 0, 0, 0, 0, 0, 0, 0, 0, 0, 0, 0, 0, 0, 0, 0, 0, 0, 0, 0, 0, 0, 0, 0, 0, 0, 0, 0, 0, 0, 0, 0, 0, 0, 0, 0, 0, 0, 0, 0, 0, 0, 1, 6, 13, 21, 33, 47, 64, 84, 105, 127, 146, 163, 176, 187, 197, 211, 225, 239, 252, 262, 266, 264, 260, 252, 246, 241, 241, 243, 247, 250, 249, 244, 234, 222, 211, 202, 195, 188, 180, 169, 152, 131, 108, 86, 66, 49, 36, 27, 24, 27, 35, 50, 68, 87, 103, 115, 120, 122, 121, 121, 123, 128, 133, 139, 144, 146, 147, 147, 147, 146, 145, 142, 137, 130, 121, 112, 101, 89, 76, 64, 53, 44, 39, 38, 41, 47, 55, 64, 74, 83, 95, 105, 115, 124, 132, 137, 139, 141, 142, 143, 146, 150, 155, 159, 161, 162, 160, 158, 153, 146, 136, 122, 104, 83, 61, 44, 32, 27, 29, 37, 47, 57, 65, 71, 74, 76, 78, 78, 76, 72, 64, 51, 38, 24, 13, 5, 1, 0, 0, 0, 0, 0, 0, 0, 0, 0, 0, 0, 0, 0, 0, 1, 5, 10, 15, 21, 26, 28, 28, 28, 26, 24, 22, 21, 20, 18, 16, 16, 16, 17, 21, 25, 28, 30, 31, 30, 31, 33, 40, 48, 58, 71, 83, 95, 105, 115, 121, 125, 125, 122, 116, 106, 95, 82, 69, 58, 48, 42, 40, 43, 48, 56, 66, 79, 91, 104, 116, 125, 129, 129, 125, 117, 108, 99, 89, 78, 67, 57, 49, 45, 48, 57, 68, 80, 89, 97, 101, 106, 112, 121, 131, 141, 150, 159, 165, 170, 173, 175, 175, 174, 172, 170, 169, 168, 166, 162, 155, 144, 129, 114, 97, 83, 70, 63, 59, 60, 65, 75, 89, 104, 121, 138, 153, 166, 173, 175, 171, 161, 146, 129, 111, 92, 76, 60, 46, 34, 25, 17, 11, 7, 4, 1, 0, 0, 0, 0, 0, 0, 0, 0, 0, 0, 0, 0, 0, 0, 0, 0, 0, 0, 0, 0, 0, 0, 0, 0, 0, 0, 0, 0, 0, 0, 0, 0, 0, 0, 2, 6, 10, 17, 26, 34, 43, 50, 57, 62, 68, 72, 76, 79, 79, 76, 67, 55, 40, 26, 14, 6, 1, 0, 0, 0, 0, 0, 0, 0, 0, 0, 0, 0, 0, 0, 0, 0, 0, 0, 0, 0, 0, 0, 0, 0, 0, 0, 0, 0, 0, 0, 0, 0, 0, 0, 0, 0, 1, 4, 7, 12, 18, 25, 32, 38, 45, 51, 57, 62, 70, 79, 89, 98, 107, 113, 117, 118, 118, 117, 116, 113, 107, 97, 82, 63, 42, 25, 12, 4, 0, 0, 0, 0, 0, 0, 0, 0, 0, 0, 0, 0, 0, 0, 0, 0, 0, 0, 0, 0, 0, 0, 0, 0, 0, 1, 7, 17, 29, 44, 59, 72, 83, 94, 107, 122, 138, 154, 168, 176, 181, 183, 183, 186, 190, 195, 199, 201, 199, 195, 190, 186, 182, 181, 178, 173, 165, 157, 151, 152, 163, 184, 216, 258, 307, 361, 417, 471, 522, 563, 595, 616, 625, 624, 613, 592, 560, 520, 472, 419, 365, 313, 264, 220, 181, 147, 116, 90, 68, 49, 33, 21, 11, 5, 2, 2, 3, 3, 3, 3, 2, 0, 0, 1, 2, 4, 5, 6, 6, 5, 4, 2, 1, 0, 0, 0, 0, 0, 0, 0, 0, 0, 0, 0, 3, 7, 14, 23, 33, 44, 54, 64, 73, 81, 88, 94, 98, 99, 97, 91, 82, 70, 55, 39, 25, 14, 6, 1, 0, 0, 0, 0, 0, 0, 0, 0, 0, 0, 0, 0, 0, 0, 0, 0, 0, 0, 0, 0, 0, 0, 0, 0, 0, 0, 0, 0, 0, 0, 0, 0, 0, 0, 0, 0, 0, 2, 7, 14, 24, 37, 49, 61, 73, 82, 88, 93, 97, 100, 102, 102, 100, 95, 86, 74, 60, 46, 33, 22, 13, 6, 3, 0, 0, 0, 0, 0, 0, 0, 0, 0, 0, 0, 0, 0, 0, 0, 0, 0, 0, 0, 0, 0, 0, 0, 0, 0, 0, 0, 0, 0, 0, 0, 0, 0, 0, 0, 0, 1, 4, 8, 13, 18, 21, 24, 24, 23, 21, 18, 15, 11, 8, 4, 2, 0, 0, 0, 0, 0, 0, 0, 0, 0, 0, 0, 0, 0, 0, 0, 0, 0, 0, 0, 0, 0, 0, 0, 0, 0, 0, 0, 0, 0, 0, 0, 0, 0, 0, 0, 0, 0, 0, 0, 0, 0, 0, 0, 0, 0, 0, 0, 0, 0, 0, 0, 0, 0, 0, 0, 0, 0, 0, 0, 0, 0, 0, 0, 0, 0, 0, 0, 0, 0, 0, 0, 0, 0, 0, 0, 0, 0, 0, 0, 0, 0, 0, 0, 0, 0, 0, 0, 0, 0, 0, 0, 0, 0, 0, 0, 0, 0, 0, 0, 0, 0, 0, 0, 0, 0, 0, 0, 0, 0, 0, 0, 0, 0, 0, 0, 0, 0, 0, 0, 0, 0, 0, 0, 0, 0, 0, 0, 0, 0, 0, 0, 0, 0, 0, 0, 0, 0, 0, 0, 0, 0, 0, 0, 0, 0, 0, 0, 0, 0, 0, 0, 0, 0, 0, 0, 0, 0, 0, 0, 0, 0, 0, 0, 0, 0, 0, 0, 0, 0, 0, 0, 0, 0, 0, 0, 0, 0, 0, 0, 0, 0, 0, 0, 0, 0, 0, 0, 0, 0, 0, 0, 0, 0, 0, 0, 0, 0, 0, 0, 0, 0, 0, 0, 0, 0, 0, 0, 0, 0, 0, 0, 0, 0, 0, 0, 0, 0, 0, 0, 0, 0, 0, 0, 0, 0, 0, 0, 0, 0, 0, 0, 0, 0, 0, 0, 0, 0, 0, 0, 0, 0, 0, 0, 0, 0, 0, 0, 0, 0, 0, 0, 0, 0, 0, 0, 0, 0, 0, 0, 0, 0, 0, 0, 0, 0, 0, 0, 0, 0, 0, 0, 0, 0, 0, 0, 0, 0, 0, 0, 1, 1, 1, 1, 0, 0, 0, 0, 0, 0, 0, 0, 0, 0, 0, 0, 0, 0, 1, 1, 1, 1, 0, 0, 0, 0, 0, 0, 0, 0, 0, 0, 0, 0, 0, 0, 0, 0, 0, 0, 0, 0, 0, 0, 0, 0, 0, 0, 0, 0, 0, 0, 0, 0, 0, 0, 0, 0, 0, 0, 0, 0, 0, 0, 0, 0, 0, 0, 0, 0, 0, 0, 0, 0, 0, 0, 0, 0, 0, 0, 0, 0, 0, 0, 0, 0, 0, 0, 0, 0, 0, 0, 0, 0, 0, 0, 0, 0, 0, 0, 0, 0, 0, 0, 0, 0, 0, 0, 0, 0, 0, 0, 0, 0, 0, 0, 0, 0, 0, 0, 2, 3, 5, 5, 5, 4, 3, 1, 0, 0, 0, 0, 0, 0, 0, 2, 2, 2, 2, 2, 0, 0, 0, 0, 0, 0, 0, 0, 0, 0, 0, 0, 0, 0, 0, 0, 0, 0, 0, 0, 0, 0, 0, 0, 0, 0, 0, 0, 0, 0, 0, 0, 0, 0, 0, 0, 0, 0, 0, 0, 0, 0, 0, 0, 0, 0, 0, 0, 0, 0, 0, 0, 0, 0, 0, 0, 1, 1, 1, 1, 0, 0, 0, 0, 0, 0, 0, 0, 0, 0, 0, 0, 0, 0, 0, 0, 0, 0, 0, 0, 0, 0, 0, 0, 0, 0, 0, 0, 0, 0, 0, 0, 0, 0, 0, 0, 0, 0, 0, 0, 0, 0, 0, 0, 0, 0, 0, 0, 0, 0, 0, 0, 0, 0, 0, 0, 0, 0, 0, 0, 0, 0, 0, 0, 0, 0, 0, 0, 0, 0, 0, 0, 0, 0, 0, 0, 0, 0, 0, 0, 0, 0, 0, 0, 0, 0, 0, 0, 0, 0, 0, 0, 0, 0, 0, 0, 0, 0, 0, 0, 0, 0, 0, 0, 0, 0, 0, 0, 0, 0, 0, 0, 0, 0, 0, 0, 0, 0, 0, 0, 0, 0, 0, 0, 0, 0, 0,